Time (s),ESC (µs),Servo (µs),Torque (lbf·ft),Thrust (lbf),Voltage (V),Current (A),Motor Optical Speed (RPM),Electrical Power (W),Mechanical Power (W),Motor Efficiency (%),Propeller Mech. Efficiency (lbf/W),Overall Efficiency (lbf/W),319A Temp (ºF),66NA Temp (ºF),4LHE Temp (ºF),App message,
0.23555749999976255,1011.0371315789422,,-0.010774904064648715,-0.06001964847451029,50.999314979086265,0.025459409045806992,0,1.2984124289252847,0,0,0,0,80.375,76.4375,89.825,,
0.2364904999997001,1035.052949999998,,-0.010836014020620108,-0.06060598381173432,50.9993744857391,0.025605387973660833,0,1.3058588240204698,0,0,0,0,80.375,76.4375,89.825,,
0.7404167499997653,1060.2417624999964,,-0.010736386791530928,-0.05983825845810836,50.99946146121104,0.029615482596306232,0,1.5103736342089817,0,0,0,0,80.375,76.4375,89.825,,
1.2507474999998465,1085.7506374999957,,-0.010897671422975205,-0.05947396142424515,50.999537505251254,0.029192530371793958,0,1.488805550953641,0,0,0,0,80.375,76.4375,89.825,,
1.7635664999997942,1111.3670499999957,,-0.010775832269182255,-0.06022433507233674,50.99960235503948,0.027189282254381907,0,1.386642638103548,0,0,0,0,80.375,76.4375,89.785625,,
2.275371749999723,1137.014399999997,,-0.010713906290370744,-0.06038494505208717,50.99977913407977,0.029720272655449565,0,1.5157273354532435,0,0,0,0,80.375,76.4375,89.7125,,
2.7718322499998154,1161.844862499995,,-0.015030444267392236,-0.059512017618200366,50.9954016184588,0.09706088819299921,0,4.94911253816832,0.00007916441803368242,0.0005249003089990703,8.426043557695227,0.0003805315156072929,80.375,76.4375,89.7125,,
3.264886999999778,1186.4656999999975,,-0.03787227824138447,-0.05619531727887679,50.96730273630963,0.45426295157850555,833,23.152168909167074,4.0546133242074145,17.128069373073696,5.210874510214353,0.002472259516663502,80.375,76.4375,89.7125,,
3.7726787499997307,1200,,-0.02034973528452149,-0.057098236418561286,50.95089098302585,0.5958524363590352,1318,30.359165625592073,3.7887631496578207,12.499981766305993,0.015153067575194221,0.0018824294216166877,80.375,76.4375,89.7125,,
4.2689237499997725,1200,,-0.012593838398929793,-0.05671476689414575,50.944718279679705,0.6108630458959914,1404,31.1202461695979,2.509986613281229,8.065013999827084,0.02286090664286898,0.0018224642713319938,80.375,76.4375,89.7125,,
4.763701749999844,1200,,-0.010603013576352406,-0.05738529004942949,50.941028392144766,0.608640234054181,1404,31.004762152216347,2.1133031116267187,6.814313133289536,0.027207196105029887,0.0018509624067156543,80.375,76.4375,89.7125,,
5.269137249999796,1200,,-0.010572677716961017,-0.05674247303504718,50.93806530393694,0.6044745859365521,1401,30.79076511599255,2.1034985720078407,6.831502994173671,0.02698759169980054,0.0018429005137910572,80.375,76.4375,89.7125,,
5.797096249999803,1200,,-0.010719709694405433,-0.05707276169438982,50.935267543135794,0.6030653519323652,1396,30.717291487600857,2.1258214860660956,6.91892404824447,0.026917858798495817,0.0018580108801801922,80.375,76.4375,89.7125,,
6.327962499999743,1200,,-0.010750352291100388,-0.057453566339056496,50.93256890381129,0.6021902149139743,1400,30.671092440252732,2.136651287229003,6.964881731943433,0.02694397892651341,0.001873298146576606,80.375,76.4375,89.7125,,
6.838784499999788,1200,,-0.010622408052309063,-0.056628275303710944,50.9300020413814,0.6080517964054493,1403,30.968078962606675,2.1157053419659446,6.831670319937861,0.02677261599085215,0.0018286457448510596,80.375,76.4375,89.7125,,
7.362668499999726,1200,,-0.010784782979598577,-0.05642180307143091,50.927889275538604,0.6026715952604657,1405,30.692794293579585,2.151975202075993,7.010362387293062,0.02624590417236155,0.0018385124541001263,80.375,76.4375,89.7125,,
7.888120749999791,1200,,-0.011181052371302931,-0.057571186408391824,50.92553383405845,0.6061446218344347,1406,30.868236068460043,2.2324695565838613,7.231033635893605,0.025828045373178413,0.001865128352016134,80.375,76.4375,89.7125,,
8.403638249999819,1200,,-0.010375781811251884,-0.05707486982592053,50.92380395072882,0.6003086020641721,1400,30.56999879433684,2.0619034944919425,6.744049929955928,0.027704042998311026,0.0018670854039529931,80.375,76.4375,89.7125,,
8.927665249999775,1200,,-0.01066485092327132,-0.05618761900661311,50.9220027872869,0.5991009954795006,1398,30.507422727900643,2.1176358272841087,6.941494008369988,0.02654510226648533,0.001841785844721479,80.358125,76.4375,89.74625,,
9.450506499999788,1200,,-0.010728455663163279,-0.0556029490603728,50.919972496858776,0.6017629075640691,1401,30.64174857213797,2.1346610061240385,6.966126865175701,0.02605414916480539,0.0018146271378813542,80.2625,76.4375,89.9375,,
9.958209999999752,1200,,-0.010442864646823188,-0.05543248823288406,50.91814239719626,0.6003842160051615,1400,30.570447824810685,2.075184861919859,6.787787911370232,0.026723062690984272,0.0018132912775768249,80.2625,76.4375,89.9375,,
10.467503499999784,1200,,-0.010483274465770194,-0.056065969514037146,50.91682040681214,0.5952999474416678,1395,30.31078059541543,2.0765501486042455,6.850307755594088,0.02701498497787798,0.0018497998372125955,80.3525,76.4375,90.0275,,
10.967418499999749,1200,,-0.010882318923640558,-0.0561791603970538,50.915002537965975,0.6013692263792966,1397,30.618713729441197,2.159553155867515,7.050978317760496,0.026100071891257084,0.0018349004667798006,80.375,76.4375,90.05,,
11.478251749999846,1200,,-0.010655276626552893,-0.055985519193126144,50.91343732113198,0.6032058528532319,1397,30.71128346632936,2.113813252954725,6.882457522991021,0.026497183135693016,0.0018229756523604592,80.375,76.4375,90.095,,
11.984288749999694,1200,,-0.01077569696769373,-0.056026544424978786,50.9120992900885,0.5982721082716318,1394,30.45928870395963,2.132381906886542,7.000801169616371,0.026289995322642236,0.0018394588537662476,80.375,76.4375,90.1625,,
12.482837499999787,1200,,-0.010563866558853182,-0.056956893592757116,50.910639416867895,0.5976072139497004,1395,30.424565481066942,2.092953944088352,6.8780200715799875,0.027256982669006592,0.0018721970981023543,80.375,76.4375,90.1625,,
12.976678999999816,1200,,-0.010720588954584808,-0.05723423424182067,50.90937860917432,0.5974260443481992,1392,30.414587083774045,2.119055656363255,6.967157334091221,0.027038323272097126,0.001881923183160344,80.268125,76.4375,90.37625,,
13.498393999999786,1200,,-0.011045612412875093,-0.05595754614656775,50.907527308544914,0.6027511675560154,1399,30.684571877026883,2.1932672413644108,7.14805270748583,0.025517428679110877,0.0018236798524849207,80.2625,76.4375,90.3875,,
14.043590999999827,1200,,-0.01091098385007897,-0.05620500514856165,50.90582316055643,0.6051996431505098,1401,30.80818606929271,2.170007318744628,7.043056427100889,0.025920920089525536,0.0018243758970569858,80.2625,76.4375,90.53375,,
14.577544249999823,1200,,-0.010515032164439666,-0.05617081881656108,50.90476254320191,0.599897808102658,1392,30.537654786297644,2.0780277523594197,6.804287038571578,0.027060462786738557,0.0018394974356140778,80.2625,76.4375,90.6125,,
15.082523249999829,1200,,-0.010896055940627553,-0.0571297147698377,50.90322139330932,0.6021317022287935,1397,30.650442174390157,2.161135121628773,7.050823115805533,0.02643854569070605,0.0018639819238384812,80.2625,76.4375,90.68,,
15.595845999999835,1200,,-0.010361145423463322,-0.05653085044294511,50.901919103143626,0.598872805586659,1396,30.483774882491826,2.0536944675803723,6.736828280970316,0.027538601511152595,0.0018544959718862222,80.2625,76.4375,90.8375,,
16.103209499999835,1200,,-0.010572290795496373,-0.056541459721610475,50.90062777757385,0.5963663800555676,1394,30.355421624203377,2.092515991585414,6.893177317191724,0.02703293996350965,0.0018627612754656528,80.2625,76.4375,90.8375,,
16.598529249999746,1200,,-0.010655473604297932,-0.054707778464396915,50.89944088858379,0.5970879101140809,1395,30.391441281329588,2.1103808844475678,6.94295672705463,0.025941380821095563,0.0018000800513376322,80.2625,76.4375,91.03999999999999,,
17.10675349999978,1200,,-0.010677989969733317,-0.055663330511950666,50.89836555501841,0.5952659219279363,1391,30.298060637838738,2.10919274307654,6.9609142131204695,0.02641390906372388,0.001837204137714398,80.2625,76.4375,91.0625,,
17.615944749999795,1200,,-0.010618855979661846,-0.056036033594647865,50.89701213163589,0.6012425226733413,1399,30.601448022810462,2.109552127163542,6.893109085942141,0.02658234552603008,0.0018312048851906175,80.2625,76.4375,91.175,,
18.116608749999806,1200,,-0.010741445986333654,-0.05548405536375907,50.8958579005902,0.6017292437475446,1401,30.625521771745774,2.1368752937863174,6.973768595382284,0.026076331693053366,0.0018118974115325982,80.2625,76.4375,91.2875,,
18.620359249999797,1200,,-0.010012105912519916,-0.05636501752177902,50.894722456923304,0.5987047632747534,1400,30.47091246600591,1.9902437208468222,6.5309177525861015,0.028362639890438336,0.0018498773860099525,80.2625,76.4375,91.31,,
19.111108999999864,1200,,-0.010639965959801352,-0.05596994043106791,50.89343645356235,0.6004575150031022,1400,30.559345827738696,2.114470811039909,6.91864456966673,0.026498410240943963,0.001831588178811984,80.2625,76.4375,91.5125,,
19.601814999999778,1200,,-0.00998566383834742,-0.05599695016613659,50.89277093205076,0.5929181083848497,1389,30.17524577182939,1.9686974974756175,6.524204430786625,0.028450311875040372,0.0018558710034347536,80.2625,76.4375,91.5125,,
20.101609749999803,1200,,-0.010586742816813727,-0.05611640418513129,50.89197614238661,0.5905173039128367,1387,30.0525918173243,2.084856280495946,6.937011417967933,0.02693486741393013,0.0018673561362734785,80.2625,76.4375,91.65875,,
20.621923499999752,1200,,-0.010673894527408946,-0.054796876824361476,50.890334727011414,0.5994316809276278,1402,30.505278635631335,2.124750372140917,6.964948485311299,0.025799995082220493,0.001796339616202445,80.2625,76.4375,91.7375,,
21.139485999999778,1200,,-0.010484264308853512,-0.05535782699307164,50.889401955576446,0.5968908479390096,1398,30.37541769686835,2.081810401970969,6.853053957254053,0.026609688575557434,0.0018224244777052929,80.2625,76.4375,91.805,,
21.657050499999873,1200,,-0.010353115211011796,-0.05468049441600848,50.888518976173124,0.5938093128459558,1395,30.218076253279214,2.049933843718863,6.7836743967094035,0.026679591017351935,0.0018096056307851398,80.2625,76.4375,91.9625,,
22.157879999999817,1200,,-0.01029660655596683,-0.05480787265244312,50.88760284060856,0.5952798866068341,1392,30.29236523962631,2.034652730358018,6.716422854294413,0.026949784442575175,0.001809364711426742,80.2625,76.4375,91.9625,,
22.657934749999807,1200,,-0.010626726240311307,-0.05459761158914554,50.88622329382834,0.6001027103824628,1399,30.53696059762702,2.1101699122834305,6.910198986036116,0.025877788958679874,0.0017879136874371538,80.2625,76.4375,92.15375,,
23.1658109999998,1200,,-0.010268279933984796,-0.05448569652695153,50.88536937070402,0.5976426823327995,1396,30.411268728077005,2.0346396926782426,6.689979807902551,0.02679144271633809,0.0017916823990590646,80.2625,76.4375,92.1875,,
23.669697999999837,1200,,-0.010602920029575517,-0.054679009424550715,50.884401015209235,0.5979516374681704,1395,30.4264100650974,2.100044893479285,6.90208300000627,0.026044111670593957,0.0017971051370170867,80.2625,76.4375,92.28875,,
24.176853749999843,1200,,-0.010474412154667968,-0.05492043778314638,50.883278036508585,0.6019129201522551,1400,30.627301752523625,2.0820445257404354,6.797811235229629,0.026394191200022194,0.0017932240512040707,80.2625,76.4375,92.4125,,
24.677400749999798,1200,,-0.010282504479746176,-0.05424626176024448,50.88220129094559,0.6014812498217262,1401,30.604689823597198,2.045232027394071,6.68259177257377,0.026528812562647216,0.0017725080492198542,80.2625,76.4375,92.42375000000001,,
25.18476224999977,1200,,-0.010428670145819226,-0.054369604447511585,50.881054860151856,0.6044057473066335,1405,30.752801384424295,2.0811643303586123,6.76707604957393,0.026143227902764382,0.0017679739344866304,80.2625,76.4375,92.6375,,
25.703800999999793,1200,,-0.00997409026632454,-0.054224121342940246,50.88036874102879,0.5959161844141503,1395,30.320434862241097,1.9758908681522835,6.516324636386827,0.02746466630608977,0.0017884826496263433,80.2625,76.4375,92.6375,,
26.223455999999846,1200,,-0.010650981843316807,-0.05430473562605273,50.879006881114876,0.6027955156675255,1404,30.669636302597524,2.123990789615702,6.925290802937232,0.025573787363681322,0.0017706720730276914,80.2625,76.4375,92.79499999999999,,
26.763605749999822,1200,,-0.010373190896925295,-0.05470403303337383,50.878012965949836,0.6033540617621573,1405,30.697453669329548,2.0693349484505306,6.739470745586432,0.026499672173252536,0.0017821201024468844,80.2625,76.4375,92.8625,,
27.294352499999757,1200,,-0.010101028455295995,-0.05458921152963839,50.8772730471495,0.5986239472527835,1398,30.456353830015882,2.0050584592763485,6.582614729783828,0.027244287013861994,0.0017924875970523099,80.2625,76.4375,92.96374999999999,,
27.833297749999748,1200,,-0.010445356990502622,-0.054185898095883055,50.876512244504724,0.594883912240995,1391,30.265616996576842,2.0629146148245083,6.815439864695568,0.02629842956565625,0.0017904871949076927,80.2625,76.4375,93.0875,,
28.35731899999983,1200,,-0.010645053872690644,-0.05349356911862094,50.87519623278156,0.5999022454052384,1402,30.520144300999895,2.11960977848332,6.944303449575474,0.025270154651213954,0.0017527999360598943,80.2625,76.4375,93.1325,,
28.88320174999982,1200,,-0.01018212501555445,-0.05322374712716913,50.874348943964854,0.5997605200591517,1400,30.512426274747877,2.024574376724742,6.634850873161294,0.026309462979286186,0.001744411029515232,80.2625,76.4375,93.3125,,
29.400569749999836,1200,,-0.010062529804908708,-0.053415018943028386,50.8734949229777,0.596686168018632,1397,30.355510177019653,1.9963355759042714,6.57568470439926,0.026788925505268436,0.0017596872443409334,80.2625,76.4375,93.3125,,
29.922263499999815,1200,,-0.010259547805866477,-0.053678201482617066,50.87260966178532,0.5971196348849794,1396,30.377033327217163,2.034329707047816,6.696397598149289,0.026421587966565064,0.0017671615968859918,80.358125,76.4375,93.50375,,
30.447551999999813,1200,,-0.010120071785818467,-0.05340930897741684,50.8719365658202,0.5952209672633035,1395,30.280042793686412,2.004186726741394,6.617749930416015,0.0266926847409564,0.001763940015563374,80.375,76.4375,93.5375,,
30.97405149999978,1200,,-0.010358082441068363,-0.054346377152878475,50.87091657478554,0.5989177976386436,1399,30.467495753705368,2.058063682462926,6.754533837769623,0.026423023814746576,0.0017839082539849078,80.375,76.4375,93.66125000000001,,
31.497255249999817,1200,,-0.010054058877643643,-0.0542733698083252,50.87038946365892,0.5959465184342881,1392,30.316031746829577,1.9865861112989844,6.5532810929885175,0.02732572510786271,0.0017902931050925086,80.375,76.4375,93.7625,,
32.02954649999975,1200,,-0.010924202478536427,-0.05283719121559209,50.8688352307026,0.5999402265078991,1406,30.518255171334697,2.181153873274759,7.143823886066153,0.024298700738657437,0.00173164621236734,80.375,76.4375,93.790625,,
32.568919249999844,1200,,-0.00985886458789611,-0.05319911945798994,50.86822229567133,0.5968383117579004,1398,30.360102488014054,1.9566855068864897,6.443774666428399,0.027246789038545997,0.0017524237315163554,80.375,76.4375,93.875,,
33.1039829999998,1200,,-0.010803438226690089,-0.052493157320826954,50.86697913585924,0.6021206692631046,1404,30.628059474869865,2.154229801219002,7.0330228021978725,0.02438877449469604,0.0017139352063947058,80.375,76.4375,93.875,,
33.64516024999983,1200,,-0.01061308084016917,-0.052841333396445506,50.866342086704066,0.5989007916292273,1400,30.463890450530055,2.1096027478960995,6.923275483798905,0.025086320591957745,0.0017346251600631405,80.375,76.4375,94.1,,
34.162750749999795,1200,,-0.010316178209165954,-0.05353985950949777,50.86565571419089,0.5948540892319759,1399,30.257643328120913,2.0486901945119502,6.7705920351007745,0.026152827567209082,0.0017694951564284835,80.375,76.4375,94.1,,
34.67580149999978,1200,,-0.010478230442654866,-0.05387538852858954,50.86464873789608,0.5973010741993116,1399,30.381508208446906,2.0810963258562056,6.84965519819082,0.02589637009541516,0.0017734059539291738,80.375,76.4375,94.2575,,
35.178799749999726,1200,,-0.010416250195539146,-0.052911055924957394,50.863897265195696,0.5969406196512048,1397,30.362726120883288,2.0666538047381566,6.806301217546084,0.025608252081152336,0.0017426468704473497,80.375,76.4375,94.325,,
35.70352724999981,1200,,-0.010790497603829165,-0.052634894144519905,50.863290245261155,0.5962184655974082,1399,30.325631612255926,2.144249466604683,7.069855983621402,0.02456803291311569,0.0017356724085828825,80.375,76.4375,94.35875,,
36.25022199999984,1200,,-0.01072145398939038,-0.05268222645879619,50.86190343688396,0.6049531732873934,1409,30.769069508313805,2.145176201632212,6.971580499247293,0.024590511042135537,0.001712276390124343,80.375,76.4375,94.4375,,
36.778704499999805,1200,,-0.010210366004935818,-0.05225690592263278,50.861354127689694,0.5980720263430404,1403,30.418752849273467,2.0336992936549447,6.685642770665211,0.025709594231026495,0.0017179329878923052,80.375,76.4375,94.44875,,
37.30579549999982,1200,,-0.010322833354990893,-0.0531971811648217,50.86043402237837,0.5999976471925741,1406,30.516140793958904,2.0601248770688323,6.750410780232722,0.025844865550632083,0.0017433048881957925,80.375,76.4375,94.6625,,
37.82271924999977,1200,,-0.010170280318467863,-0.05297494630939716,50.85991307821662,0.5959985592901994,1400,30.312433184749796,2.0219976751598656,6.66935886885075,0.026224793781581414,0.001747671628988384,80.375,76.4375,94.6625,,
38.3341757499998,1200,,-0.010312193228445073,-0.053061933988982186,50.85881450705467,0.6009139223898805,1407,30.561769640332557,2.0605074826907486,6.741704635297926,0.02577269754633034,0.0017362536810751777,80.375,76.4375,94.82,,
38.85695349999976,1200,,-0.009862046018154958,-0.05237085969103183,50.858367285304894,0.5946170639331865,1396,30.241252789651487,1.9544640367433708,6.462787222980384,0.026802148218443102,0.0017317850597026508,80.375,76.4375,94.8875,,
39.36531149999986,1200,,-0.01046850047607001,-0.052839920888033194,50.85794294895796,0.5926190096064705,1396,30.139384119950535,2.0745605457953062,6.883827872188915,0.025491773234441743,0.0017533046876556846,80.375,76.4375,94.92687500000001,,
39.89262724999986,1200,,-0.010437222252878397,-0.05334510397301724,50.85712932718033,0.5933094816252967,1392,30.17401518366866,2.0626934715333123,6.834565541106315,0.025905625319362056,0.0017680555975415435,80.375,76.4375,95,,
40.417589999999805,1200,,-0.010601251875978147,-0.05191265342820232,50.85628018244352,0.5946760977615824,1401,30.243013003307812,2.1091111900554167,6.972566180343224,0.02465668249828981,0.0017165800378973247,80.375,76.4375,95.01125,,
40.92830124999983,1000,,0.012391464137436725,-0.052983960834558176,50.87699948626409,0.28912668990163504,1087,14.707072953269085,2.462741729293208,33.60398028948224,0.04043504908822548,0.006208877953409273,80.375,76.4375,95.225,,
41.46691099999985,1000,,0.006040727436431853,-0.055514075092187254,50.90152968045425,0.03757788499163821,135,1.912752464912676,0.47783879469132584,17.58413553936179,6529440.801500277,0.030321173133056326,80.375,76.4375,95.225,,
41.99020674999976,1000,,-0.009548588930579275,-0.056174194137736694,50.90701792277496,0.027824019218552508,0,1.4164379435460455,1.4133659066469004e-11,1.00365401359853e-9,772815323617471100,0.03969250663108677,80.45375,76.4375,95.3825,,
42.53378549999981,1000,,-0.010255501724224538,-0.05633556568720828,50.910381098734476,0.026585714795732844,0,1.3534887915142464,8.329062759775682e-23,5.9214894319034425e-21,6.592046928321886e+29,0.04167246974655248,80.4875,76.4375,95.45,,
43.06982299999981,1000,,-0.010358509406401262,-0.055463417687674814,50.91296048251953,0.02665888627412578,0,1.3572828190538797,1.2259800696208333e-34,8.977979820634874e-33,1.1553778824658424e+41,0.04090097456230824,80.43125,76.4375,95.50625,,
