Time (s),ESC (µs),Servo (µs),Torque (lbf·ft),Thrust (lbf),Voltage (V),Current (A),Motor Optical Speed (RPM),Electrical Power (W),Mechanical Power (W),Motor Efficiency (%),Propeller Mech. Efficiency (lbf/W),Overall Efficiency (lbf/W),319A Temp (ºF),4LHE Temp (ºF),App message,
0,1000,,0.0017733962845367145,-0.03392452206106934,25.669099541548455,0.022669254827856256,0,0.5818993587089701,0,0,0,0,80.375,86.225,,
1.0227950000000419,1050,,0.0017346327676826042,-0.033877158348372086,25.669388322651,0.02237394764621764,0,0.5743255504414239,0,0,0,0,80.375,86.225,,
2.019329999999958,1050,,0.0017457989932706424,-0.034089734482445476,25.66975086184904,0.023783330115006218,0,0.6105121587173211,0,0,0,0,80.375,86.225,,
3.0195600000000558,1050,,0.0017982721456068775,-0.03262261888853396,25.669986406708837,0.0243943043948463,0,0.6262014622168222,0,0,0,0,80.375,86.225,,
4.017655000000028,1050,,0.0016946886881322228,-0.033841652873422265,25.670301521280525,0.024734228380565937,0,0.6349351004253417,0,0,0,0,80.375,86.225,,
5.0181849999999395,1050,,0.0017833652141074363,-0.034193951837490445,25.670657432929634,0.022715183977044584,0,0.5831137064006837,0,0,0,0,80.2625,86.225,,
5.67544000000006,1085.4835250000017,,0.0017152971452119707,-0.033389684871336055,25.670797071715267,0.021918775472707153,0,0.5626724372203552,0,0,0,0,80.2625,86.225,,
6.347704999999958,1122.665175000003,,0.0015702300439997313,-0.033853822410453545,25.670886833924083,0.022276504392403917,0,0.5718576233128138,0,0,0,0,80.375,86.225,,
7.021429999999935,1159.718675000007,,0.001588921631291015,-0.0342687183647748,25.6711811000085,0.024668067033344176,0,0.6332584162001278,0,0,0,0,80.375,86.225,,
7.6744849999999865,1195.5275250000043,,0.0051981368494662785,-0.033967604999956,25.639130871843655,0.5707848094462014,0,14.6344264290515,0.000015795495226950787,0.0001079338182711035,2150.4615405789473,0.0023210752511984537,80.375,86.225,,
8.345755000000004,1232.8585000000037,,-0.002211546653834236,-0.03351423145875393,25.613169692212026,1.0072499203927885,50,25.798863133487547,0.015592562997640586,0.06043895390646522,2.149372842926797,0.001299058461814608,80.375,86.225,,
9.024,1269.9538000000018,,0.00199290860581563,-0.03214703498465084,25.600859239404883,1.145550768137417,84,29.327083966678156,0.02371541903922578,0.08086524751718095,1.3555330787737294,0.0010961551793276397,80.375,86.225,,
9.674979999999982,1305.7681500000042,,-0.0013085747353751194,-0.033138494668972195,25.55528672327977,1.8910344755522812,83,48.32592822634554,0.01543997303658452,0.03194966677984513,2.146279309585036,0.0006857290875771795,80.375,86.225,,
10.346104999999982,1342.4957750000053,,0.0002824668014749643,-0.034234707984737066,25.54003188231649,2.0681686729233286,83,52.82109384447,0.003311693721832901,0.006269642449253467,10.337522385913578,0.0006481256917083174,80.2625,86.225,,
11.00325,1378.736100000001,,0.13115185093465306,0.19268868978348294,25.474883739384275,3.2601855801892325,2278,83.05284862413777,42.41144551251867,51.06561209532381,0.004543318141009994,0.00232007321814464,80.2625,86.225,,
11.67735499999998,1415.7670500000095,,0.13700450664961156,1.544875656181809,25.401914894451416,4.2730506966652735,4158,108.54367013636761,80.87458463825429,74.50879865831736,0.019102115492671986,0.014232756771914217,80.375,86.225,,
12.346894999999902,1452.8414500000072,,0.1504542615876743,1.9013212282771912,25.338815910134965,5.2198490092220595,4522,132.26479312337815,96.59199658855728,73.02925767891621,0.019684045215216415,0.014375112101854772,80.375,86.225,,
13.002849999999977,1488.7638750000012,,0.1798095905931335,2.3369854360002282,25.251181363398697,6.542709794703574,4960,165.211151634145,126.62018956848658,76.64143026427361,0.018456657220025683,0.014145446072402004,80.375,85.775,,
13.671844999999973,1526.6179000000016,,0.20379917949421794,2.695796510464428,25.160008058102747,7.920811401248443,5320,199.28767868212293,153.93602660520568,77.24312291817292,0.017512447020464176,0.01352716097799705,80.375,85.775,,
14.371029999999912,1563.311150000003,,0.24066309593314167,3.1873548274527517,25.017617012801367,10.16774458464664,5803,254.37273990267474,198.2741503114212,77.94630446143036,0.01607549356507897,0.012530253157914098,80.375,84.9875,,
15.003760000000009,1598.9024750000024,,0.26868983551505393,3.6779217894754113,24.887625323519664,12.154730397845197,6176,302.50237604996636,235.6130032999623,77.88798434464016,0.015610011917691131,0.01215832363864773,80.375,84.9875,,
16.002310000000055,1600,,0.27134658261774197,3.9582605215487705,24.8254998591949,12.536744346643133,6277,311.2309450123515,241.81946764217537,77.69775837443751,0.016368659480327202,0.012718081492159087,80.2625,84.2,,
17.044445000000064,1600,,0.27028668870130573,3.9339957678153996,24.79048370450545,12.556904263575836,6273,311.2917305252118,240.73963706192842,77.3356994275923,0.016341288106218294,0.012637649452421872,80.2625,83.525,,
18.029515000000014,1600,,0.26981489631818095,3.924795150104946,24.759811977075245,12.590693452337243,6273,311.7432025408625,240.30469021572702,77.08417962512864,0.016332578222179383,0.012589833934199393,80.2625,83.525,,
19.001900000000024,1600,,0.2668766616008625,3.8831450494393422,24.738296658175365,12.534658709763539,6273,310.0861056711121,237.68341442207344,76.65077863055515,0.016337467462259402,0.012522796018335431,80.2625,82.85,,
20.006035000000033,1600,,0.26756055234329873,3.879889213537805,24.719599879629634,12.472409448408634,6273,308.3129710995736,238.29677947207958,77.2905462336577,0.01628175262012888,0.012584255536510481,80.15,82.4,,
21.021064999999943,1600,,0.26640668476215784,3.8603552138400152,24.705580278550173,12.388119654516057,6260,306.0556846249317,236.800988956256,77.3718642888314,0.016302107651050116,0.012613244607989698,80.15,81.95,,
22.022125,1600,,0.2662908096842269,3.857827591615468,24.68719835147759,12.446442622400953,6253,307.26779778949725,236.42732248827306,76.945037582573,0.016317181749612795,0.012555261629656308,80.15,81.95,,
23.022214999999967,1600,,0.26638588977396205,3.864358106106096,24.671804915229803,12.4696688541945,6253,307.64923732820387,236.5008649755102,76.87354177420185,0.016339720814578212,0.012560922106182738,80.15,81.6125,,
24.000955000000076,1600,,0.2678067859050054,3.8856543263495236,24.657204360091686,12.528094923451633,6265,308.9077967701741,238.21904547291624,77.11655321220333,0.016311266459134957,0.012578686478543082,80.15,81.3875,,
25.005109999999988,1600,,0.2657305724525366,3.8307592205663865,24.66015704095938,12.27059153369726,6249,302.59471420644104,235.78063787690814,77.91961551451625,0.016247132313579864,0.012659703030876159,80.15,81.3875,,
26.005664999999922,1600,,0.2625542791002356,3.82151211476185,24.653158533724444,12.241736092382537,6252,301.79746061352307,233.0467167158675,77.2195750892362,0.016398051723771203,0.012662505864009294,80.0375,81.05,,
27.01331999999995,1600,,0.26577308291181756,3.8420206011885623,24.641465666055083,12.315129889409365,6240,303.46285034288957,235.46815805224327,77.59373438501036,0.016316518687576154,0.012660596171318421,80.0375,80.825,,
28.030474999999978,1600,,0.2665254406267207,3.877502728090299,24.62567111598815,12.511452185356074,6236,308.1029066999899,235.96914660710715,76.58777034417213,0.016432244570288718,0.012585089733885417,80.0375,80.7125,,
29.038484999999987,1600,,0.26518435975918847,3.8784706078242235,24.625843674918737,12.371897586187638,6238,304.66841591956126,234.87866431009965,77.09321086046296,0.01651265609507918,0.01273013678204248,80.0375,80.7125,,
29.98539500000002,1600,,0.26519995050947237,3.8746102223317482,24.619540767507853,12.427250804854584,6235,305.9532078181622,234.75794608300762,76.73001625220148,0.016504703193142317,0.012664061442475718,80.0375,80.4875,,
31.02304999999993,1600,,0.2659432552223262,3.886810921545497,24.61587072730207,12.396940771345328,6232,305.16149144145703,235.30308889573703,77.10772672667913,0.016518316609382657,0.01273689843101043,79.925,80.2625,,
32.02011499999999,1600,,0.270160206000453,3.8839718712712843,24.604401796998104,12.54836649277022,6235,308.7450510841064,239.15681849007987,77.4609399082903,0.01624027236937169,0.012579867620981679,79.925,80.0375,,
33.02015999999992,1600,,0.2673206726711028,3.8721950848588116,24.606139122669166,12.452461937848856,6225,306.40701086245144,236.24924548805953,77.10308090636794,0.016390296091144636,0.01263742325594851,79.925,80.0375,,
34.02078500000003,1600,,0.2649813981301198,3.8643981822399742,24.607315773102385,12.37657206661294,6235,304.554217031703,234.58121345238575,77.02445092985421,0.016473604707583935,0.012688703574371142,79.925,79.8125,,
35.021154999999915,1600,,0.2641175903514048,3.8546345817753025,24.60326502842363,12.410333987869683,6230,305.3347361948113,233.6122133486886,76.51019869538791,0.01650014152308848,0.012624291064335203,79.8125,79.7,,
36.024045000000044,1600,,0.26518306491662785,3.8578171318297816,24.60145747497808,12.403711609820744,6231,305.1493837008969,234.60196516317353,76.88102211378774,0.016444095551998213,0.01264238873774413,79.8125,79.5875,,
37.02045500000008,1600,,0.26717931671151307,3.886375829742739,24.59020388532522,12.588943702220734,6225,309.5646923384887,236.15922534303283,76.28751960020304,0.016456591200693465,0.012554325237754316,79.8125,79.5875,,
38.020670000000045,1600,,0.2670589011872662,3.8909935535116817,24.59364099325499,12.465203591142718,6215,306.56474202839684,235.65741390661887,76.87035774152727,0.016511229114368194,0.012692240887738038,79.8125,79.475,,
39.02221499999997,1600,,0.26591678286675524,3.8809768611473405,24.592618113303182,12.448804891434254,6215,306.14870466206327,234.6608171134441,76.64929282404451,0.016538665930201403,0.012676770478030562,79.8125,79.3625,,
40.02076000000001,1600,,0.26684281921754716,3.89432647898343,24.59006425005382,12.468882359970682,6226,306.6106183580418,235.86628097057456,76.92697736095488,0.01651073846994376,0.012701212044900106,79.8125,79.3625,,
41.00129499999993,1600,,0.2657872349855457,3.8806490473672746,24.59299232969595,12.390700007326055,6224,304.7243902397332,234.87564653707614,77.07805940715622,0.01652214311948556,0.012734947288972454,79.8125,79.25,,
42.015979999999985,1600,,0.2649668179476462,3.8431447027493935,24.597493719928924,12.290718903047157,6224,302.32088103111414,234.1594096525626,77.45393201221303,0.01641251448511813,0.01271213781079801,79.7,79.025,,
43.008949999999956,1600,,0.26431487048378266,3.838233100028517,24.59613894835327,12.295286732676821,6236,302.4165808867636,234.00473124080696,77.37827421851163,0.016402373916443214,0.012691873867411057,79.7,78.9125,,
44.02347999999998,1600,,0.26303881114120065,3.8376112443064345,24.59467688787536,12.317996797236104,6235,302.9571511339055,232.84863326790554,76.85860274180743,0.016481141376900613,0.012667174978187692,79.7,78.9125,,
45.01879500000004,1600,,0.2599847771307318,3.815382318615068,24.59534581093898,12.298684641217209,6235,302.4904017704213,230.13465102913696,76.0799845820564,0.016578912830176144,0.01261323432507058,79.7,78.9125,,
46.02246499999997,1600,,0.26280443454079666,3.837077384486039,24.59128199775091,12.35265674777443,6232,303.7676655059417,232.55136388120312,76.55566746838446,0.016499913483397917,0.01263161889892124,79.7,78.6875,,
47.02231999999995,1600,,0.2610268692720895,3.828533532837155,24.595238873754695,12.254557627999821,6233,301.4037721528483,230.9968907191293,76.64034496621557,0.016573961324407156,0.012702341133592792,79.7,78.575,,
48.01227999999991,1600,,0.26076220669042194,3.867188592104815,24.589658161432105,12.356831090516849,6236,303.8502524743656,230.8640904668611,75.97956183575592,0.01675093161645216,0.012727284445587456,79.7,78.575,,
49.024474999999974,1600,,0.26341898518932627,3.8649595645665586,24.58562891705634,12.428336533287842,6226,305.5584700637093,232.867724681272,76.21052842446775,0.016597231625192204,0.012648837925391858,79.5875,78.4625,,
50.023449999999954,1600,,0.2622996087284591,3.8597132542615475,24.590259711954705,12.324379980582524,6226,303.05970451133953,231.87395868835694,76.51098289765571,0.016645738383451143,0.012735818047750817,79.5875,78.4625,,
51.02608999999997,1600,,0.26518347899176176,3.8805285034639394,24.586052433124923,12.39374783680678,6229,304.7133341586601,234.5314246905286,76.96789027565538,0.016545878696573032,0.012735013760321368,79.5875,78.575,,
52.02629500000004,1600,,0.26335628316041165,3.8770153616864165,24.58802494901726,12.34661814528057,6231,303.5789549921478,232.98869290703,76.74731369737285,0.0166403584367653,0.012771028089831512,79.5875,78.575,,
53.03085499999998,1600,,0.26235178497552264,3.860622284202533,24.586234923673462,12.360088754631155,6239,303.88804579881617,232.38181201487774,76.46954700176725,0.016613272143498756,0.012704093950304288,79.5875,78.575,,
54.023939999999946,1600,,0.2610086233791245,3.8359512550757806,24.58606978979016,12.357091923752543,6244,303.81232443623236,231.38326588936337,76.1599340378072,0.016578343469790733,0.01262605545115374,79.5875,78.575,,
55.02290000000002,1600,,0.25623589995639323,3.7867896784008623,24.594873880350814,12.183448492493879,6246,299.6503791006372,227.23992737991475,75.83502082057987,0.016664279565931462,0.012637359878423758,79.5875,78.575,,
56.00004500000004,1600,,0.2586750995985538,3.7865603536754047,24.582729877106733,12.423039339880368,6252,305.3922203449494,229.62148115206566,75.18904079897698,0.016490444773186418,0.012399007248443901,79.5875,78.575,,
57.02340499999991,1600,,0.261291254526601,3.7982398650699722,24.588169787449388,12.305005323416188,6238,302.5575601276258,231.40693645849416,76.48360740378834,0.016413681988963348,0.012553776092945047,79.5875,78.575,,
58.02070499999996,1600,,0.26168917794583973,3.854053761027508,24.582071566437527,12.405238487129276,6236,304.94646028933704,231.68966993379271,75.97716324169254,0.016634551562565724,0.012638460395214076,79.475,78.575,,
59.02135499999998,1600,,0.26240340032218057,3.8642338939644474,24.58307894179298,12.37955489266492,6225,304.32757519064126,231.91980691816954,76.20729300421988,0.01666193994085163,0.012697613390911942,79.475,78.575,,
60.033089999999966,1600,,0.25986078049938366,3.8281446730469115,24.58985510909432,12.234155621090963,6229,300.8361141047386,229.81915951713253,76.39347430113362,0.016657204216959688,0.012725017022770447,79.475,78.575,,
61.00003499999992,1600,,0.262321791983577,3.85441835240779,24.58470481671171,12.340448689879281,6221,303.38628834645885,231.7145688164872,76.37608478596617,0.016634337547676615,0.012704655748997297,79.475,78.4625,,
62.02361499999999,1600,,0.26111808906846806,3.8398471537494543,24.585840213893174,12.304386469748392,6220,302.5136796752231,230.59673646632706,76.22687896755424,0.016651784464044958,0.012693135589345553,79.475,78.4625,,
63.02339500000002,1600,,0.26431299366182015,3.865569538808131,24.58311938834121,12.351467876465039,6229,303.63760942840133,233.7632096762798,76.98756755341992,0.016536261391008673,0.012730865409212897,79.475,78.4625,,
64.02202000000001,1600,,0.2647976328663203,3.8826225512774766,24.58479383322902,12.303152164772534,6235,302.47045946977806,234.40477930690554,77.49675115970344,0.01656375165539594,0.012836369403093451,79.475,78.4625,,
65.00073499999999,1600,,0.26327267309343344,3.854244566635205,24.576429136120776,12.47511076164062,6237,306.5936755987184,233.1410157738006,76.042343443165,0.016531816822719397,0.012571180925727211,79.475,78.35,,
66.02283000000007,1600,,0.25785895471446657,3.841683984792429,24.58564255502614,12.271601029610299,6234,301.7051964918896,228.23763851513905,75.64922353641812,0.016831947656773576,0.012733237708405534,79.475,78.35,,
67.02658499999997,1600,,0.2570056898243481,3.8468888353828308,24.585306632329065,12.280055224913847,6233,301.9089231664416,227.44405597766544,75.33532086174087,0.016913560650538992,0.012741885185228697,79.475,78.35,,
68.0221449999999,1600,,0.2608216294500553,3.865494628995427,24.577541733531728,12.434067416633544,6237,305.59881084985795,230.9708003762755,75.5797444806657,0.0167358584838349,0.012648919078728227,79.475,78.35,,
69.02182999999995,1600,,0.2531988379530325,3.765974317348425,24.586128214353074,12.269136649298352,6245,301.65056673906753,224.4909165111012,74.42085023672088,0.016775620037892246,0.012484559064681126,79.475,78.35,,
70.02303000000003,1600,,0.26049736514112,3.8554670803576143,24.578683695536768,12.400997514532923,6224,304.80019541884235,230.1867958600419,75.5205538971948,0.016749297308529434,0.01264916210128937,79.475,78.35,,
71.02861999999999,1600,,0.2611106426675129,3.832822469195914,24.580533953270795,12.344297933660958,6232,303.4294344876437,231.02973936705752,76.13952804452317,0.01659016921239896,0.012631676540108355,79.3625,78.2375,,
72.00173999999998,1600,,0.260869401786249,3.8215515681932213,24.584794440746155,12.260569275516756,6232,301.42357536510747,230.8173310376736,76.5757392261338,0.016556605827703096,0.012678343303320795,79.475,78.2375,,
73.02334499999998,1600,,0.263780118173151,3.8751254832555366,24.578830361390175,12.367267013582785,6243,303.97295796086775,233.81317078641575,76.91906949713466,0.016573597929585394,0.012748257309633458,79.475,78.125,,
74.00147999999999,1600,,0.2617310437047836,3.8685324782103354,24.57749977396563,12.387250296073496,6222,304.447641351802,231.20474484967275,75.94236691178894,0.016732063525450657,0.012706725074411345,79.475,78.125,,
75.00060999999998,1600,,0.2573590823174268,3.8225135840475706,24.584698480767262,12.244277987996968,6238,301.0218824496011,227.92187818711008,75.71604972115944,0.016771156917676496,0.012698457510601606,79.475,78.125,,
76.00172499999998,1600,,0.25620984946979863,3.771355731667538,24.586584839146187,12.217774749737806,6241,300.39335543000664,227.03467931032813,75.57912823515449,0.016611364145442134,0.012554724209092186,79.475,78.125,,
77.022,1600,,0.2552138338585989,3.7606034245077384,24.58594933432572,12.226455064421843,6245,300.5990047522855,226.28575235755258,75.27827729969626,0.016618825468806515,0.012510365520360712,79.475,78.125,,
78.02172999999998,1600,,0.2548800975359053,3.728519371898124,24.58969345675883,12.155528131119535,6242,298.90071054923794,225.8969967711759,75.57593167178634,0.016505395933505734,0.012474106752864093,79.475,78.125,,
79.02355500000004,1600,,0.2579963465767587,3.797231824103938,24.587210017417195,12.186774932509184,6232,299.63879470059857,228.2667488921011,76.18063913258864,0.01663506333065988,0.012672697565407582,79.475,78.125,,
80.021505,1600,,0.2595566226985211,3.844615217642505,24.579432328575027,12.33952711985643,6226,303.2985718091274,229.43340111543284,75.64605390223217,0.016756998758468464,0.012676008313227429,79.475,78.125,,
81.00928000000003,1600,,0.25250121854426294,3.7252445465500204,24.590084618978903,12.12732618158799,6246,298.21197700720694,223.9049263546867,75.08247274363347,0.016637617613865622,0.01249193471012062,79.475,78.125,,
82.02263,1600,,0.26249142327892283,3.828361850487123,24.579127660125625,12.327352336949822,6216,302.99556680123766,231.669632673509,76.45974332868116,0.016525091382530988,0.012635042455913204,79.475,78.125,,
83.02331999999996,1600,,0.2625353631852739,3.844889717648551,24.577388231531213,12.355950528986797,6224,303.676993120502,232.00461606554236,76.39848303341196,0.01657247076740211,0.012661116267450858,79.475,78.125,,
84.00126500000002,1600,,0.26016957890216535,3.8411648928210425,24.57983119492852,12.300470448653966,6225,302.3434872461212,229.9289553461733,76.0489195386573,0.01670587720036354,0.012704639110331362,79.475,78.0125,,
85.02324499999999,1600,,0.25981061666589056,3.827807398742461,24.57867081267063,12.32145738697326,6223,302.8450450467646,229.54403566579953,75.79586967663741,0.016675699665381363,0.012639491586039917,79.475,78.0125,,
86.00123499999998,1600,,0.26164860227003434,3.819560619076903,24.582109637387585,12.255779674655345,6225,301.2729196540441,231.2481573060357,76.75703397822188,0.016517150508672227,0.01267807482817559,79.475,78.0125,,
