Time (s),ESC (µs),Servo (µs),Torque (lbf·ft),Thrust (lbf),Voltage (V),Current (A),Motor Optical Speed (RPM),Electrical Power (W),Mechanical Power (W),Motor Efficiency (%),Propeller Mech. Efficiency (lbf/W),Overall Efficiency (lbf/W),319A Temp (ºF),66NA Temp (ºF),4LHE Temp (ºF),App message,
0.23071600001156328,1200,,0.036030206797672465,0.34501074441771584,49.469730571630585,0.22896276683970412,0,15.441060921836828,0,0,0,0,79.475,75.7625,99.3875,,
0.2402317500084638,1200,,0.7072591502756019,0.9251389639687819,49.37178680798296,2.0154830387882017,453,99.49871729241234,41.49000535736676,47.813003776795,0.05308328863532174,0.01032795056719734,79.548125,75.835625,99.606875,,
0.7357887500047685,1200,,0.30431557933327186,1.6262717253903778,49.412342453059345,1.3595427082522948,839,67.17797960776392,36.12490071010376,53.58451539948752,0.04620077027603547,0.024288896204184684,79.5875,75.875,99.725,,
1.2188710000112652,1200,,0.21971120772076352,1.8307196422392356,49.42354785449759,1.2638701158148398,875,62.464877181478,27.285386038212003,43.6620273543907,0.06726205462534293,0.02932680869229762,79.61,75.875,99.7475,,
1.7134747500076888,1200,,0.20109694600944722,1.871495956622207,49.430586188454306,1.243484104260835,881,61.46613735709237,25.15189293638538,40.92046172043674,0.07441818491937854,0.03044908931451584,79.7,75.875,99.8375,,
2.2094697500079867,1200,,0.1977696604558065,1.8685019202783655,49.436734288018606,1.2289715379955817,882,60.75632490983524,24.762286509502623,40.75794545214426,0.07545813013281524,0.03075544310854152,79.7,75.875,99.8375,,
2.710293000012636,1200,,0.1989995481242017,1.8787551572833248,49.44186382547858,1.2274726938966452,884,60.68853435853957,24.96680758413054,41.1391949912725,0.07525412021283173,0.030958070495925357,79.77875,75.79625,99.60125,,
3.241033250007033,1200,,0.19925679846577846,1.8840558289648988,49.44659377447391,1.2397903123272929,885,61.30341576208201,25.035270269657595,40.840273134517986,0.07527097523512578,0.030740476417845674,79.8125,75.7625,99.5,,
3.7688932500123977,1211.8070125007216,,0.21372610759764124,1.8837199438902585,49.446617610572545,1.3374658597509115,891,66.13272894942033,27.068275726288796,40.85308153340439,0.07021488846690362,0.02861952615367815,79.863125,75.813125,99.39875,,
4.259858750006556,1236.3310375007131,,0.3493176766381293,2.135392498173699,49.414471379888724,1.9585950652816397,982,96.78107552924465,48.920677500544066,50.27793681818046,0.04431939376081108,0.02212828624992373,79.925,75.875,99.275,,
4.746335750012099,1260.6731500005844,,0.45955154083339317,2.7183704933307893,49.37907411113798,2.5646047230267284,1128,126.63549291468537,73.78876157942923,58.13361719686624,0.036988153048498965,0.02147602215802363,79.925,75.875,99.275,,
5.242391750003398,1285.413262500806,,0.5579294907062002,3.471946762311532,49.333077969581936,3.3332307898287246,1279,164.43412991548126,101.51720762239188,61.69221178145132,0.03427695208803996,0.021138916742841872,79.925,75.875,99.168125,,
5.750522500008344,1310.8451500005322,,0.6798527598055064,4.354152310218735,49.27164780991619,4.3158703429336,1436,212.6435457906304,138.9764751170016,65.20549925117207,0.03147330623346358,0.020493278609788154,79.925,75.875,99.1625,,
6.244907000008226,1335.594612500572,,0.7898299263752293,5.312330570071644,49.202772979736764,5.379727566211517,1588,264.687755305474,178.25499878455062,67.36347533067837,0.029846692186905176,0.0201056003826828,79.98125,75.875,98.99375,,
6.736278500008583,1360.1653125006123,,0.9189259967782645,6.295294652632589,49.12954060315125,6.42554675777575,1733,315.6779931787141,226.20716713848165,71.66480640017349,0.027837909281923544,0.019948190905647856,80.0375,75.875,98.825,,
7.232032750009003,1384.9080625006172,,1.0211052933507314,7.2713532588921295,49.05693200719732,7.472094858853032,1854,366.54425953123905,268.94928294781636,73.39774429494219,0.02707007634474678,0.019867375825201344,80.0375,75.875,98.81375,,
7.733370000006258,1410.0376125006005,,1.180259281126401,8.29733303598656,48.954144046575976,8.974721760115315,1994,439.3400108759667,334.40542860429184,76.09142175725451,0.024829237498231498,0.018890758447163196,80.0375,75.875,98.6,,
8.229587000007928,1434.7803625005326,,1.3277127488602045,9.413675689708201,48.83495967109335,10.747621272315294,2123,524.8270706117383,400.7698292895778,76.32466435500683,0.023548969670552953,0.017967269207774764,80.0375,75.875,98.6,,
8.731056500008702,1459.8812375005946,,1.4713531325967635,10.741123524809492,48.71468232365669,12.413892675100318,2245,604.7271000720439,468.9650400828931,77.58910189710245,0.022904443834119027,0.017773324856795752,80.110625,75.801875,98.45375,,
9.238288500009478,1485.2091375008604,,1.6520909577029506,11.978682097833897,48.55656348971909,14.800551861508689,2370,718.6280942762252,556.3261534267754,77.39909766293246,0.021550591577604115,0.016678612705576277,80.15,75.7625,98.375,,
9.7589920000121,1511.2328750006418,,1.810095434887165,13.371782422280551,48.40668929026833,16.93778737065766,2490,819.8838574656041,640.0983007516376,78.07084113830823,0.02089465971472957,0.01631252702413354,80.15,75.790625,98.346875,,
10.275449750012159,1537.0528500005457,,1.9960892381403905,14.558383621392982,48.240085093366694,19.320836636568014,2611,932.0067958081734,740.1952209478895,79.40128878359224,0.01967976868062991,0.015624206954024568,80.15,75.875,98.2625,,
10.794329000009593,1563.0185250006616,,2.15589078724136,16.008682143956836,48.07811367550067,21.551309917819424,2727,1036.098808352583,834.8609914574885,80.5867084516132,0.019181556096108197,0.015458048690109341,80.15,75.875,98.2625,,
11.290177250011267,1587.868737500612,,2.2770086675686265,17.150698641533232,47.92921593603096,23.75182728108669,2811,1138.368434597466,908.8673196679913,79.86814765078057,0.018874410648158826,0.015075542527780013,80.15,75.875,98.155625,,
11.78524800000936,1612.5644500005728,,2.4534599599676277,18.327583968384523,47.72927867454224,27.01189583267247,2913,1289.1662687944154,1014.8979667370602,78.7508290095235,0.018068861737293867,0.014230517623526902,80.15,75.875,98.15,,
12.296941250009834,1638.1541625006503,,2.635749062606555,19.722133802353596,47.539742229510935,29.8311034320173,3010,1418.1278015688458,1126.6696794518978,79.44553227063605,0.017509195685475556,0.013909943954208725,80.15,75.81875,98.09375,,
12.793827500006556,1663.061012500475,,2.7591513160717276,20.54585090369498,47.420254392748554,31.349858351554566,3089,1486.6037342247146,1210.1394005752804,81.4071542541807,0.016978402020216797,0.013821550262425271,80.15,75.7625,98.0375,,
13.282079500010614,1687.4215250005363,,3.0502201706336236,22.195529807237033,47.04268271144785,38.209021060764755,3238,1797.1323565849016,1403.8680419241084,78.07460768395484,0.015849688765209084,0.0123695986049239,80.15,75.7625,98.0375,,
13.785006500011685,1700,,3.2870978378420377,24.756286454199294,46.825216254473645,41.54223163540788,3349,1945.223051687223,1562.9451591212783,80.34853473139897,0.015838909482394328,0.01272691967773345,80.15,75.7625,97.8125,,
14.305327000008521,1700,,3.2739021504398216,25.307719101945217,46.79268796575084,41.506378286448516,3356,1942.1934332190672,1559.990270769459,80.32198961409402,0.01622302841366159,0.013030527596608847,80.15,75.7625,97.8125,,
14.822873500008882,1700,,3.2668371056410317,25.480768440925207,46.767164240839506,41.549397919025246,3353,1943.1472285519042,1555.3785424882456,80.04478894755343,0.016382411891912006,0.013113184075195189,80.07125,75.7625,97.57624999999999,,
15.308504000009597,1700,,3.266508993967435,25.35514672986878,46.7536559468729,41.471451681837515,3355,1938.9409197004018,1556.1930925850272,80.26056429359573,0.016293059772001663,0.013076934386710648,80.0375,75.7625,97.475,,
15.807771000008284,1700,,3.25147685689726,25.11628651615645,46.73956834536629,41.53775696898286,3354,1941.4551165019452,1548.5192734640952,79.76199906552144,0.016219557866228283,0.012937087234534447,80.0375,75.790625,97.41875,,
16.317267000009117,1700,,3.2438783552605264,25.041400419419766,46.73458473460521,41.42620232117183,3353,1936.0342859745429,1544.402044435951,79.7720334642475,0.01621467736432212,0.012934670422198704,80.0375,75.875,97.25,,
16.85605850000828,1700,,3.2478238250961096,24.95013791371477,46.74119779066872,41.10779401842197,3358,1921.4259051019333,1548.6565415212503,80.60016721774429,0.016111063365730743,0.012985521409214893,80.0375,75.875,97.25,,
17.384897000010316,1700,,3.2382141337108035,24.93255024170069,46.73900632254179,41.057424355511834,3359,1918.9810919701981,1544.1988204375598,80.47089180869757,0.0161460407770931,0.012992883304694778,80.0375,75.77375,97.14875,,
17.921298500008884,1700,,3.225888673761624,24.824800144166563,46.74368454481842,40.87407132513698,3363,1910.6040830296577,1540.0795282587974,80.60722771917887,0.016119295064447103,0.012993226961649524,80.0375,75.7625,97.1375,,
18.439205000011622,1700,,3.1969994490385742,24.58204394635215,46.73915700754834,40.918436468585085,3364,1912.4923050306509,1527.1355943460862,79.85144234427531,0.01609682441622806,0.01285357173977889,80.0375,75.835625,96.99125000000001,,
18.955340500007573,1700,,3.203462715638843,24.476657046287865,46.73775063382812,40.898112636554494,3361,1911.4855966020812,1528.5808750975218,79.96853055941956,0.01601272681994144,0.012805041296916212,80.0375,75.875,96.9125,,
19.48143225001246,1700,,3.1944386277661754,24.301962049893838,46.74520984075789,40.68410930667564,3363,1901.7863357792448,1525.1538180188586,80.19664350919751,0.015934105413828163,0.012778575514393513,80.0375,75.835625,96.87312499999999,,
20.00267325001061,1700,,3.2005021507663054,24.493639504849572,46.73694651169886,40.79554839688095,3365,1906.658896971387,1528.9468133365638,80.19057737094151,0.016019987878481863,0.012846483469022367,80.0375,75.7625,96.8,,
20.53652375001162,1700,,3.188797574677817,24.34890933691592,46.742752307270784,40.6602620811759,3366,1900.5724860595444,1523.8721457438337,80.17960359984752,0.01597827250216993,0.012811341633698608,80.0375,75.7625,96.8,,
21.059815750008816,1700,,3.204069551236336,24.41886047885142,46.725092182711464,40.97968177968651,3372,1914.7731575613075,1533.9209409993439,80.11381347900259,0.015919447967301024,0.012753738098567561,80.0375,75.7625,96.8,,
21.565881750011442,1700,,3.1839580296701278,24.383116037337096,46.74098687954158,40.62108724281452,3365,1898.669563240414,1521.004242436154,80.10902500314236,0.01603097374983123,0.012842262317858497,80.0375,75.7625,96.8,,
22.085660000008346,1700,,3.1944940651173237,24.089179422362836,46.73616365362867,40.700709556233036,3362,1902.1945287920994,1525.0475949785819,80.17347649746714,0.015795804952789483,0.012663987784630395,79.95875000000001,75.84125,96.87875,,
22.62527900000959,1700,,3.2053749987531996,24.106381362676004,46.72259210467416,40.95626661723183,3360,1913.5828761579237,1529.2804870775012,79.91719860157211,0.01576326290492621,0.012597533418100928,79.925,75.875,96.9125,,
23.15291875001341,1700,,3.209365491944556,24.523281679978673,46.72165682708277,40.88499889675075,3354,1910.213816445849,1528.1484417140937,79.99956875184373,0.016047515204014134,0.012837982517199703,79.925,75.824375,96.963125,,
23.67790750000775,1700,,3.2462940330423673,25.040207353922725,46.697866543421696,41.34308548567032,3352,1930.6327064485126,1545.1100414275147,80.03247261238553,0.016206076836961868,0.012970152094385052,79.925,75.7625,97.025,,
24.197647000011802,1700,,3.2265732178679887,24.851041272624876,46.705133992493224,41.182265270314545,3363,1923.4223645082839,1540.5357448845941,80.09443946191344,0.016131493364356583,0.012920348294801709,79.908125,75.7625,97.025,,
24.742017750006916,1700,,3.2394138208811745,25.174763605515206,46.70777297191709,41.062178120963374,3353,1917.9195549352394,1542.384721164867,80.42187916852485,0.016321989792401934,0.013126479829124871,79.8125,75.7625,97.025,,
25.285217750011384,1700,,3.250538217349369,25.03681744810329,46.696024167322065,41.290028519662265,3356,1928.0786369220714,1549.054131181298,80.34295503539093,0.016162634399018477,0.012985573432877446,79.8125,75.7625,97.025,,
25.813997500009833,1700,,3.239085680572472,24.744996882256192,46.700709715483065,41.17410056544925,3351,1922.858687531275,1541.2581675402284,80.15549147242658,0.01605508629927863,0.012868967269215123,79.8125,75.875,97.025,,
26.3125252500087,1700,,3.231212783052132,24.467534020529122,46.71341085382865,40.87328134229047,3358,1909.3301058576515,1540.752871017729,80.69632690839288,0.0158803141701937,0.012814738020415984,79.8125,75.875,97.025,,
26.81720700000971,1700,,3.2318807626418073,24.690226808517558,46.706820296736296,41.0194351440345,3356,1915.8867965174861,1540.180337406006,80.39029058958769,0.016030735967144872,0.012887134630471576,79.8125,75.813125,97.025,,
27.35157025001198,1700,,3.226289355223891,24.906131783767297,46.70209173823167,41.133572786594684,3359,1921.0218028555162,1538.6427450593937,80.0967090518607,0.01618711119404245,0.012965285894265204,79.8125,75.7625,97.025,,
27.85127125000954,1700,,3.225769031645027,25.04882181266366,46.69991941345107,41.151109970622585,3356,1921.752625630338,1537.0296343404932,79.98131187086454,0.016297003613688407,0.013034561837970696,79.8125,75.7625,97.0475,,
28.3522832500115,1700,,3.237254607810961,24.995913502331415,46.69669745058192,41.19680889852003,3357,1923.7541260915702,1542.8055875899495,80.19825084759006,0.016201552555539758,0.012993392722363478,79.8125,75.7625,97.1375,,
28.861290000008047,1700,,3.2544304409870217,25.226380592684094,46.693561785975675,41.20513752223947,3355,1924.0129532925941,1550.0946576646595,80.56680462891302,0.01627417356638307,0.013111663900694149,79.8125,75.7625,97.1375,,
29.38750125001072,1700,,3.2275149600197124,25.076527334620042,46.69943285602524,41.08482720954008,3356,1918.6374962213802,1537.8776884018555,80.15528838829064,0.0163059455355865,0.013070067361185832,79.716875,75.7625,97.1375,,
29.89721900001168,1700,,3.2212840318522895,24.825584904221643,46.699602874778115,41.0798618136622,3357,1918.4124553365284,1535.5097949682156,80.04127498835841,0.016167556420027474,0.012940796685190662,79.7,75.7625,97.1375,,
30.41511375001371,1700,,3.2196163497050443,24.650572070380967,46.69742882269107,41.1064391364721,3355,1919.5635539440405,1533.8167695875275,79.90528878168976,0.01607144998458526,0.012841993716823387,79.7,75.7625,97.1375,,
30.945289750006786,1700,,3.2342476574455956,24.815287082297832,46.68925549546644,41.25007852753275,3352,1925.934232783659,1539.326098872972,79.92748774042302,0.016120895056846735,0.012885024783156625,79.7,75.7625,97.1375,,
31.481704750011865,1700,,3.2571699379718133,24.977241269199347,46.6865370844461,41.249810272538824,3349,1925.810064573172,1548.736294343588,80.4201677049504,0.016127506993167198,0.012969760698296822,79.7,75.785,97.1375,,
32.01121975000501,1700,,3.2376032337228833,24.90766678447049,46.689541697774416,41.1827896686864,3351,1922.8044690917147,1540.5854953151222,80.12302135646078,0.016167650401650344,0.01295403912833694,79.7,75.875,97.1375,,
32.56558600001036,1700,,3.2148230370354156,24.74602445663945,46.69821226249425,41.01762190406473,3360,1915.4490225021975,1533.8608220807407,80.07859011684856,0.016133357612435322,0.012919277231668809,79.7,75.875,97.1375,,
33.09698625000715,1700,,3.2032443085878852,24.731222161734678,46.70591236369271,40.864921001323914,3358,1908.6331301827017,1527.422549649105,80.02730534315974,0.016191476324765714,0.012957620329913704,79.7,75.7625,97.25,,
33.640662750010186,1700,,3.2400710431000297,24.946839502582343,46.68117874391899,41.32138063934881,3358,1928.9260610589263,1544.9370884553211,80.0947900977144,0.01614808921355566,0.012933892127256229,79.7,75.7625,97.25,,
34.162527500011024,1700,,3.2568875530598045,25.12224692574618,46.6718196437065,41.49671993301625,3352,1936.726370612397,1549.9860668908545,80.03138405915425,0.01620827608298653,0.012971639338698056,79.62125,75.7625,97.32875,,
34.690312500013405,1700,,3.2833364999903947,25.207397625261063,46.66124716924101,41.671909445344795,3351,1944.460307629465,1562.0009364258485,80.33504256332125,0.01613799675838199,0.012964207268174514,79.5875,75.7625,97.3625,,
35.20809950000942,1700,,3.2549649437323316,25.138902918320955,46.67048884808835,41.4704067790214,3355,1935.4426136328934,1550.6818337547961,80.12232894310525,0.016211577677269565,0.012988965737530415,79.5875,75.7625,97.41312500000001,,
35.75103925000876,1700,,3.239034679406101,24.917458722200923,46.689090791939066,41.05534645242225,3355,1916.8348215380834,1543.0152202896056,80.49956754968862,0.016148540902103728,0.012999453648238733,79.5875,75.7625,97.475,,
36.29458300001025,1700,,3.2405480803496136,25.004557189551214,46.676662191275966,41.3517496801844,3356,1930.1593790121474,1544.1057406880648,80.00058926086318,0.016193628203821444,0.012955012906170857,79.5875,75.785,97.475,,
36.837826000006494,1700,,3.2381572762655186,25.13471925661268,46.68065262409647,41.254096191437235,3356,1925.766896872094,1543.0324106660182,80.12649546839562,0.016289233270243904,0.013051999988512808,79.5875,75.875,97.475,,
37.37806300000846,1700,,3.2388281382393638,25.075525331238754,46.671578878728575,41.43804263569223,3359,1933.9781046699695,1544.6982347956782,79.87198729335744,0.016233390600285745,0.012965883086388609,79.5875,75.875,97.475,,
37.90493050000816,1700,,3.231786251889686,24.91794612472425,46.680338622030575,41.210353902841874,3357,1923.7125733569624,1540.536294208738,80.0820773158224,0.016174938115297494,0.012953128213452752,79.5875,75.875,97.7,,
38.429906250011925,1700,,3.2303183022360127,24.97125285348493,46.690181991691425,40.973238484365226,3354,1913.0470975940702,1538.2216784957152,80.40728763376913,0.016233930075727095,0.013053227883834333,79.5875,75.875,97.7,,
38.949817500011626,1700,,3.2368125073799656,24.889925048628943,46.68125267733171,41.154262823921826,3354,1921.131343806945,1541.2533702120977,80.22724016673578,0.016149130889548346,0.01295596648837651,79.5875,75.875,97.62687500000001,,
39.48371650000811,1700,,3.2424233546687566,25.078866806708632,46.67473537875877,41.294501807641076,3351,1927.4088796401597,1542.8183158769232,80.04699137565152,0.01625525921813442,0.013011861528086751,79.5875,75.875,97.5875,,
40.0480132500112,1700,,3.251108919733965,24.945805426105018,46.66364597346943,41.49318089087785,3351,1936.2216606221584,1546.5840575089223,79.87729384779745,0.01612963096031568,0.012883878091908661,79.5875,75.81875,97.5875,,
40.59489825000614,1700,,3.241383626329096,25.023586961283304,46.67873366031103,41.14899931492981,3350,1920.7824410425208,1541.8857682589075,80.27466892379263,0.01622931345576329,0.013027889054725938,79.5875,75.7625,97.5875,,
41.128014750009775,1700,,3.2551661065422643,25.173302900514535,46.6676248252238,41.36181241444991,3350,1930.2568715374812,1548.2969202843865,80.21209607304067,0.01625875979716673,0.013041480075936904,79.5875,75.79625,97.5875,,
41.67997400000393,1700,,3.253738885866842,25.268367048647832,46.66066176442142,41.481616791369916,3351,1935.5578969667076,1548.2080306780972,79.98943853342844,0.016321106570369687,0.013055076460085111,79.5875,75.875,97.5875,,
42.21105725000949,1700,,3.2704749045198955,25.299408116140423,46.643637173078126,41.80964663321346,3350,1950.1511574987078,1555.6443744140884,79.7722357785922,0.016263052703095082,0.012973404125732108,79.5875,75.86937499999999,97.5875,,
42.72229600001127,1700,,3.2546389598067997,25.256332604608048,46.65462132229216,41.576177542571315,3353,1939.7153539753194,1549.4452286209762,79.88285391484321,0.01630045695226291,0.013021405035849608,79.5875,75.7625,97.5875,,
43.258508500009775,1700,,3.2419694446955933,25.091739539577627,46.66587497405733,41.33870156680482,3355,1929.1047627475036,1544.280445261408,80.05283171771985,0.016248084904869283,0.013006954262246535,79.5875,75.7625,97.5875,,
43.78268300001323,1700,,3.2164906733801257,24.878194159518923,46.688163791010105,40.87530835303493,3364,1908.391672530647,1536.4316551774396,80.51001987356652,0.016192392916604886,0.01303636485615657,79.5875,75.7625,97.503125,,
