Time (s),ESC (µs),Servo (µs),Torque (lbf·ft),Thrust (lbf),Voltage (V),Current (A),Motor Optical Speed (RPM),Electrical Power (W),Mechanical Power (W),Motor Efficiency (%),Propeller Mech. Efficiency (lbf/W),Overall Efficiency (lbf/W),319A Temp (ºF),66NA Temp (ºF),4LHE Temp (ºF),App message,
0.22997650000052525,1010.9006315789405,,0.03671727617827504,0.1160361739842329,51.11577854604224,-0.37627657412652116,0,19.23366989570502,0,0,0,0,75.7625,74.75,105.3725,,
0.2367687500003725,1034.7989499999767,,0.03669338530928213,0.11542301892721492,51.115990289300115,-0.3733731805826217,0,19.085339909888063,0,0,0,0,75.7625,74.75,105.35,,
0.7246597500002943,1059.177837499974,,0.03692048348849867,0.11558259866305347,51.11627274443849,-0.37213996089525175,0,19.02240776302348,0,0,0,0,75.79625,74.75,105.38374999999999,,
1.2228635000005363,1084.0948249999838,,0.03678104891762818,0.11541224603502723,51.11643283695778,-0.375717780214401,0,19.20535268292868,0,0,0,0,75.875,74.75,105.4625,,
1.7033362500005402,1108.1420999999864,,0.03684105143515207,0.11585997520222467,51.11657960904589,-0.3739502060396195,0,19.115055484188474,0,0,0,0,75.875,74.75,105.4625,,
2.197087250000518,1132.8086249999797,,0.03675829088670746,0.11522256471097857,51.11677784260892,-0.3749577392184098,0,19.166631353794322,0,0,0,0,75.875,74.75,105.4625,,
2.690720000000205,1157.4851124999896,,0.05214970155459943,0.11600925650670638,51.11256861530223,-0.28812094773188723,0,14.727283752641293,0,0,0,0,75.875,74.75,105.4625,,
3.180396000000089,1181.9836124999756,,0.5152552371183581,0.3437471165253625,51.00364881556169,1.5783025132934632,136,80.47612734323297,13.587724747855635,15.469374663525722,0.004140663276021548,0.0034271010667926475,75.875,74.75,105.4625,,
3.6622185000004244,1204.2994450000124,,0.5692982146852186,1.3306555002044318,50.99394992912073,1.3940341115493036,806,71.08677614473389,64.42894495680991,91.28676861129537,0.02069766960746981,0.01919826979566674,75.875,74.75,105.4625,,
4.153959000000265,1223.9242900000208,,0.47073634814527127,2.149578487604746,50.984031873223245,1.474299220714138,993,75.16406078350336,66.39421375624578,88.76569192451896,0.032327696380205925,0.02867451152477637,75.875,74.75,105.4625,,
4.638804000000469,1243.3594200000152,,0.571128967663642,2.8871907235678393,50.93400038859297,2.2105761051439905,1158,112.59132527832271,94.09731478858711,83.54796732604419,0.030685761158729192,0.02563456798236097,75.970625,74.75,105.27125,,
5.1257392500002865,1262.809630000018,,0.6487384455361498,3.681705402853851,50.88594147477808,2.840350831500193,1305,144.53155036933043,120.30188726642557,83.21229487769465,0.03061456100140359,0.0254752682520655,75.9875,74.75,105.2375,,
5.614638000000268,1282.3702800000137,,0.7302331424456723,4.410729742443073,50.83258894810532,3.525419621815091,1430,179.20105277764176,148.4565713065526,82.89648060503842,0.029754483037518587,0.024669902016942795,75.9875,74.75,105.10249999999999,,
6.100500000000559,1301.7970200000163,,0.8223551001045113,5.181304948386228,50.772052645058196,4.317320157866931,1546,219.1949686115222,180.68591440072493,82.43842970610822,0.028693845002144308,0.02365476379472767,75.9875,74.75,104.7875,,
6.591000250000414,1321.4358800000118,,0.93499621510926,5.945414161991245,50.69679089058898,5.331223382569979,1668,270.26873098863206,221.6262209854927,82.0089995728793,0.026855089893812984,0.02202417827743066,75.9875,74.75,104.7875,,
7.082411500000672,1341.0647000000135,,1.0430086538156966,6.803368401815271,50.618745194810835,6.326068633561627,1787,320.2106474619484,264.769231878551,82.70486593595538,0.025707950996022834,0.02126170366482171,75.9875,74.75,104.3375,,
7.576050750000495,1360.8131200000134,,1.1751450085103434,7.720784531509633,50.513175654842215,7.88658563858931,1913,398.36360296192936,319.36688337040516,80.16063116980283,0.024198536093312382,0.019396771108989824,75.9875,74.75,104.225,,
8.075556500000042,1380.7955900000234,,1.291226766041989,8.742080647536797,50.41867005482271,9.090631859829248,2028,458.3333360997275,371.79778476730013,81.12474120676785,0.023510300506871987,0.019072461360234164,75.9875,74.75,103.95500000000001,,
8.567604250000418,1400.4789100000162,,1.4121546934918767,9.588725868448877,50.30719274303159,10.773818886721022,2129,541.9661693404094,427.1651331233378,78.88950821753943,0.022485762185688818,0.017744442332066908,75.9875,74.75,103.55,,
9.05884800000051,1420.136480000012,,1.5637827826288007,10.654353537814712,50.175577083703004,12.688642602103583,2248,636.6312882615549,499.1600718237816,78.47535379566675,0.021350518845620538,0.016757067858133263,75.9875,74.75,103.55,,
9.554185750000457,1439.9226500000113,,1.6981676506784618,11.75074701635287,50.03930338510835,14.6520618914578,2358,733.1758190053506,568.548320233502,77.56542354508524,0.020667527057207404,0.01603400877902041,75.9875,74.75,102.84125,,
10.055700000000465,1460.0025700000224,,1.7687283129119116,12.547315676583125,49.95973299595754,15.497208980266146,2417,774.2176514852315,607.2311831436319,78.4371233675486,0.020674733620651538,0.016215945499918366,75.9875,74.75,102.7625,,
10.559686000000408,1480.157660000019,,1.9326991329306278,13.584522673948673,49.80239644134069,17.95059682251577,2521,893.89503430535,692.1707037524736,77.57120633242951,0.01964247928551676,0.015243758404779572,75.9875,74.75,102.3125,,
11.053742250000312,1499.9269700000223,,2.073307033211227,14.76346150517195,49.6412945404882,20.57085946775517,2613,1021.124062743282,769.2185257631593,75.37942385774925,0.019196412846805313,0.014472322622075238,75.9875,74.75,101.8625,,
11.535966250000707,1519.2356900000123,,2.2258955079463605,15.842543180481604,49.45266843115165,23.71440183345272,2706,1172.5840605005174,855.3009401513111,73.16256900328965,0.018530159943866222,0.013563894776786652,75.9875,74.75,101.8625,,
12.023359750000107,1538.7120900000155,,2.39055794670869,17.063443873477546,49.16089232814742,29.1054770770396,2803,1430.7305580235138,951.4903519456717,66.59151321424712,0.01793433243429614,0.011943459937112462,75.9875,74.75,100.9625,,
12.508626250000296,1558.1481200000162,,2.483413226660044,18.078907060484788,49.07370396439511,29.69687654191882,2869,1457.3121533081155,1011.5684002408492,69.48070313760255,0.017874463286643123,0.012417883629024608,75.9875,74.75,100.9625,,
13.004828250000253,1577.907720000021,,2.614287249898285,18.844614977632176,48.932996622765685,32.17918123268827,2943,1574.5996516414973,1092.374187427005,69.3757487694804,0.017254793208277126,0.011969674732656078,75.9875,74.75,100.608125,,
13.514813000000455,1596.6664800000144,,2.7396639216607483,19.79088876339211,48.746688211551245,35.12802092040025,3015,1712.2837187620335,1172.8596499173314,68.53782509690853,0.016876646335137135,0.011568043436838177,75.9875,74.75,100.175,,
14.003543750000466,1600,,2.8075423213123667,20.49063943178589,48.61903780172472,36.67049420102812,3053,1782.8451196392712,1217.0546906087802,68.29899133437753,0.01683619272273666,0.011498508414047846,75.9875,74.75,100.14125,,
14.501285750000179,1600,,2.8160710457979494,20.864889465779008,48.52080011533163,38.19970001385157,3040,1853.474621148443,1215.385472297954,65.57927883184014,0.017167313975824043,0.01125825925480939,75.9875,74.75,99.5,,
15.000650250000415,1600,,2.802722731438705,20.86313364728047,48.50519096195899,37.711784548704074,3033,1829.2121257388694,1206.9788912040349,65.99418027486585,0.01728562679501997,0.01140835025280038,75.9875,74.75,99.5,,
15.508942250000501,1600,,2.790226540150222,21.165524043971992,48.493610737030025,37.09265710777852,3029,1798.7508874726493,1200.1283805928822,66.72699472053048,0.017636047786166606,0.011767959872491622,75.9875,74.75,99.1625,,
16.003891000000294,1600,,2.7877350542073023,21.04355092492536,48.453891273547654,37.6432583089884,3031,1823.960974060918,1199.772893543938,65.7800097497646,0.01753970262578658,0.01153755811240384,75.9875,74.75,98.9375,,
16.524207000000214,1600,,2.7668292938939056,20.75413346435265,48.46173425331959,36.81905794344938,3038,1784.3013982397529,1193.597796381522,66.91317045838015,0.01738784377299595,0.011635070773034427,75.9875,74.75,98.89250000000001,,
17.024488250000402,1600,,2.747260680580204,20.5426915146868,48.4336387056887,37.1873352763731,3045,1801.1148203950966,1187.6362003674392,65.94323336168586,0.017297124988929803,0.011406284002636961,75.9875,74.75,98.7125,,
17.51521700000055,1600,,2.74198185791709,20.74034789986739,48.43198369170025,36.76873058282553,3041,1780.77935315535,1183.915062123375,66.4889541157027,0.01751847368125946,0.011648098804501066,75.9875,74.75,98.7125,,
18.0098905000004,1600,,2.7352448691463778,20.76019869983877,48.44831664341505,35.80003907240964,3033,1734.4373458980303,1177.7067940464515,67.92769121104268,0.01762770017078129,0.011973877099245682,75.903125,74.75,98.628125,,
18.5049667500006,1600,,2.7329406921626616,20.732522837132766,48.44235071058704,35.698801767942484,3036,1729.331811736415,1178.1421578914392,68.13076045991326,0.01759767144949267,0.011989432075341337,75.875,74.75,98.6,,
19.004283000000104,1600,,2.7247193039187274,20.903635020031523,48.43095443597817,35.73283095709613,3025,1730.5720918015286,1170.0996391259337,67.61743269000581,0.017864887671636367,0.01207963546728052,75.875,74.75,98.6,,
19.523763250000584,1600,,2.7563198084713108,20.937893339877107,48.39736109664003,36.41857083880926,3013,1762.5571376728913,1179.1997445340307,66.91012874404697,0.017756147760896023,0.011880681295626801,75.875,74.75,98.6,,
20.031329500000272,1600,,2.7511666277938946,20.93397693197308,48.37331024490266,36.92941956570225,3014,1786.3920510978012,1177.305654559043,65.91100951922752,0.01778127783826732,0.011719638583533042,75.875,74.75,98.6,,
20.53607125000041,1600,,2.7574489902862322,21.04018619197007,48.366346351912185,36.83818170263263,3006,1781.7176150126566,1176.8635396387967,66.06565700663944,0.017878284403245976,0.011811522625406232,75.875,74.75,98.6,,
21.04203950000051,1600,,2.7514332485198416,20.76662280417343,48.382565289451634,36.327674984027894,2998,1757.6117603756404,1171.352747972391,66.66608167617542,0.017728801886603075,0.011818691508251654,75.875,74.75,98.6,,
21.539697000000437,1600,,2.742284611386333,20.645194892359395,48.41088290867643,35.376999712028685,3001,1712.6243060410652,1168.4331462291423,68.23595720286113,0.017669154777583327,0.01205651639320024,75.813125,74.75,98.6,,
22.04336100000041,1600,,2.743289731592185,20.61122465297648,48.37021203893169,36.31632799420765,3012,1756.6256323952032,1173.2789069279393,66.79578502024755,0.017567172703429876,0.01173418449812067,75.7625,74.75,98.6,,
22.565951500000345,1600,,2.7217164102052918,20.343582413509647,48.39547279264047,35.54944448292146,3014,1720.41797858637,1164.6367559493433,67.71434204121043,0.017467656004863864,0.011827765426292077,75.779375,74.75,98.58312500000001,,
23.072618000000347,1600,,2.7060438464156955,20.30713363025629,48.38894024633477,35.69967166073683,3010,1727.4436529664647,1156.3445043355748,66.98203460529201,0.01756153806834623,0.01176261639417341,75.875,74.75,98.4875,,
23.57701425000075,1600,,2.715034886560577,20.25284498808387,48.3742514655365,35.99854964684507,3011,1741.3981892977463,1160.8487865203817,66.66836691902468,0.01744666588166711,0.011631564568015727,75.875,74.75,98.4875,,
24.102960250000745,1600,,2.712857622637271,20.382818923851335,48.36066859714602,36.299927938006455,3010,1755.483485101952,1159.3921402697567,66.05113888019842,0.017580625582187155,0.011612276846113817,75.875,74.75,98.6675,,
24.619907500000302,1600,,2.7106744669818985,20.514937652540652,48.348702932283,36.46176836717437,3006,1762.8752537775406,1156.9039008412146,65.62948755224208,0.017732636434151322,0.011637715856521843,75.875,74.75,98.7125,,
25.137040500000303,1600,,2.7246775808537746,20.45201974915505,48.33824497903655,36.67937399020111,2997,1773.0094246204062,1159.278737867126,65.39234336228233,0.017641974290651362,0.011536392079620834,75.925625,74.75,98.86437500000001,,
25.644913750000576,1600,,2.7134981380150394,20.287712744590557,48.397989903218814,35.06258290264629,2990,1696.9483290519443,1151.9640927164314,67.90091350768752,0.017611418639893007,0.011958423076118668,75.9875,74.75,99.05,,
26.156331250000186,1600,,2.716014364053359,20.347724223098542,48.403468299255636,34.85859632277307,2990,1687.2524728906478,1152.8708077810606,68.3712360228472,0.017649810672353466,0.012066463769620917,75.9875,74.75,99.03875,,
26.66790550000062,1600,,2.701968755240627,20.370388431354264,48.37449452666498,35.71186258313255,2989,1727.5410002117333,1146.797735567976,66.38686682034839,0.017762822720847317,0.011792213477783706,75.9875,74.75,98.9375,,
27.173460250000097,1600,,2.7071950942425094,20.20466296928927,48.371784875193285,35.81603357131426,2988,1732.4821476236643,1148.5768378522025,66.30168829485599,0.0175910658581821,0.011663221818415887,75.9875,74.75,98.9375,,
27.65662125000032,1600,,2.7028839812820364,19.991036169100244,48.406426339843485,34.76625835900588,2995,1682.8992687991777,1149.3772855201503,68.31723004420651,0.017392880561324937,0.011882810551436623,76.060625,74.823125,98.86437500000001,,
28.153956750000447,1600,,2.6867299834748186,19.89577019032491,48.380423804034045,35.43059951435164,3009,1714.144219693178,1147.7222671426002,66.96079778190915,0.01733501893582821,0.011607654420343986,76.1,74.8625,98.825,,
28.656155250000204,1600,,2.68397405025236,20.097003183934024,48.379657561725296,35.302873421086474,2992,1707.9290344388387,1139.98258076811,66.7619125794153,0.017629556329101004,0.011770665000903204,76.1,74.84,98.825,,
29.170389000000426,1600,,2.692806061138297,20.009059629543966,48.40107093599332,34.76078462912588,2989,1682.4551041096056,1142.6201312926312,67.9195432047661,0.017511931413604024,0.011894365020927234,76.1,74.75,98.825,,
29.669496000000272,1600,,2.685530000542399,19.99557454973366,48.40083030283132,34.779143903757706,2997,1683.3322268275938,1142.6894008132217,67.89269039468658,0.017498784851160628,0.01188030875983049,76.1,74.75,98.825,,
30.18969600000046,1600,,2.666765760904483,19.68203891142126,48.427632895587564,34.06639711195682,2995,1649.7481747905629,1134.0140835550576,68.7519814858703,0.017356109672940444,0.011932750808177104,76.195625,74.75,98.825,,
30.708030750000297,1600,,2.6829129685823965,19.701609843442853,48.39847991753286,34.881924649835874,2993,1688.2291465416242,1140.0907201517316,67.53687257026631,0.017281169967044378,0.01167086111191744,76.2125,74.75,98.825,,
31.21002475000024,1600,,2.682473043235924,19.915682690631137,48.36583346233361,35.6106254546643,3007,1722.3353229931333,1145.1401151772764,66.49141952312416,0.017391498533569433,0.011563759728325884,76.2125,74.75,98.9375,,
31.699245250000434,1600,,2.664844848171464,19.941436092985562,48.40240137478548,34.69455143108753,2998,1679.288047396623,1134.2491707368013,67.55943190734186,0.017581178610656282,0.011877745467787092,76.2125,74.75,99.05,,
32.199850750000124,1600,,2.6497778154074574,19.810249618304912,48.41078068642489,34.54614672993666,2992,1672.4037392354371,1125.7980451502183,67.32018095774286,0.017596732317102154,0.011846128340111377,76.2125,74.75,99.05,,
32.702103500000575,1600,,2.6536427583460758,19.720711086672047,48.414133082811894,34.4490123363777,2994,1667.814587154063,1127.89168866023,67.6338930305082,0.017484597768456362,0.011825592677776591,76.4375,74.75,99.1625,,
33.21052125000013,1600,,2.6509966703841097,19.793262207523764,48.39300045613064,35.13302039648651,2998,1700.1643241025704,1128.5058576747695,66.41632771060132,0.0175394898867378,0.011649832561511503,76.4375,74.75,99.1625,,
33.70897250000033,1600,,2.6398785180976874,19.851482359054078,48.42746944734607,34.09149149440746,2991,1650.9613924110356,1121.0963122183769,67.91062475721279,0.017707285259846064,0.012025306260590245,76.4375,74.8175,99.365,,
34.21345400000037,1600,,2.6417189897596853,19.61320130388224,48.41658163783377,34.44800199081548,2993,1667.848501267823,1122.6446641132027,67.32095449680516,0.017470581299956826,0.01176136762894739,76.4375,74.8625,99.5,,
34.699807750000346,1600,,2.640550487799508,19.56488677543257,48.40543915133293,34.78953899658528,2990,1683.9957238456434,1121.1473153579213,66.58742968942228,0.017450918593380476,0.011620638032824558,76.454375,74.845625,99.60125,,
35.202984000000356,1600,,2.640532396438433,19.57525557518944,48.40851510115956,34.68101320590856,2990,1678.8484497684942,1120.983628481627,66.7833808360181,0.01746255644798317,0.011662074354281793,76.55,74.75,100.175,,
35.71587900000047,1600,,2.646017712872743,19.689431947257752,48.41216832639235,34.52474705779505,2984,1671.4105058551027,1121.1004829671115,67.0864909333291,0.01756259175814101,0.011782240311413466,76.55,74.75,100.175,,
36.22769625000022,1600,,2.6606877887102978,19.723093413632252,48.41084196172774,34.55625241753326,2980,1672.890382917305,1125.7646341220434,67.30650273500493,0.017519729189367776,0.011791990024055342,76.64,74.84,100.535,,
36.72826975000035,1600,,2.6557939606025625,19.454227262803272,48.39575746572474,34.99886791816207,2982,1693.7922098653235,1124.469880432262,66.39524651224474,0.017300776865509414,0.011487092125619724,76.6625,74.8625,100.625,,
37.237406750000446,1600,,2.6449806830050573,19.511516858030795,48.38790126157006,35.27423671303605,2985,1706.8409019281985,1120.9538868268364,65.68264647561342,0.017406527137943315,0.01143309834266831,76.7075,74.8625,100.76,,
37.73035375000015,1600,,2.6486620444800075,19.815889169829212,48.4131337227708,34.467183769783716,2974,1668.6557914787172,1118.3698247966418,67.0354668843473,0.01771853491371706,0.011877483814335515,76.775,74.8625,100.9625,,
38.221619750000634,1600,,2.671903590238177,19.85202118225603,48.378153101456775,35.45988407965943,2968,1715.4785031308415,1125.8158780708995,65.6353488569992,0.017633470604155498,0.011573697336320403,76.775,74.8625,100.9625,,
38.72381850000015,1600,,2.6674095731951777,19.608093831241995,48.42032697666984,34.13235231201766,2971,1652.696924182459,1125.13222313093,68.08363162345316,0.017427392694594573,0.011865453321098798,76.775,74.8625,101.06375,,
39.260704500000074,1600,,2.642722895180489,19.430152553917736,48.426215760789184,34.01950422921127,2981,1647.4325905810042,1118.569055449792,67.90361350252749,0.01737059955774863,0.011794930625625708,76.775,74.8625,101.075,,
39.79609000000032,1600,,2.6284778221183047,19.66717153585256,48.43874758543747,33.61622883264692,2979,1628.3173625314998,1111.8404855064077,68.3015450619521,0.017688943412412925,0.012082113881076615,76.775,74.8625,101.148125,,
40.31220525000039,1600,,2.6303976126068163,19.540657113471134,48.39632508258116,34.96762763331737,2981,1692.3010061843765,1113.4115616061395,65.7977713024749,0.017550291661843246,0.011547835041913465,76.775,74.8625,101.1875,,
40.84215825000033,1600,,2.632043461003473,19.67881901544746,48.40286126607806,34.77803180956981,2972,1683.3537355265994,1110.6539043872035,65.98278847925275,0.017718261733900308,0.011690919458564274,76.814375,74.8625,101.384375,,
41.364343250000566,1600,,2.627339083880839,19.48518013622193,48.39960508891913,34.87960910722021,2976,1688.1565454270888,1110.3089341969817,65.77502158578909,0.01754935516820864,0.011543129545717803,76.8875,74.8625,101.75,,
41.88235200000024,1600,,2.6342064923845694,19.615802990017055,48.403167170158355,34.75778093956045,2971,1682.381727745315,1111.2916889316018,66.06346767716799,0.01765145778550224,0.011660720418440216,76.89875,74.8625,101.79499999999999,,
42.41200200000042,1600,,2.636518116109305,19.5707737623224,48.42240270881749,34.16714245306102,2975,1654.449141884359,1113.6893577027718,67.32467357692087,0.017572953657245777,0.011831013610416136,77,74.8625,102.2,,
42.933778000000494,1600,,2.6303840612407514,19.649339014872552,48.450485850247006,33.27591806076684,2972,1612.231710825697,1109.9087520729831,68.8477548666339,0.01770358844218144,0.012188706895743253,77,74.8625,102.2,,
43.451352500000596,1600,,2.6342114207970853,19.69241530328617,48.423988113640156,34.115549912946946,2970,1651.9980048051973,1110.8118224924142,67.26305118069209,0.01772797547424831,0.011924375457011444,77.084375,74.8625,102.70625,,
