Time (s),ESC (µs),Servo (µs),Torque (lbf·ft),Thrust (lbf),Voltage (V),Current (A),Motor Optical Speed (RPM),Electrical Power (W),Mechanical Power (W),Motor Efficiency (%),Propeller Mech. Efficiency (lbf/W),Overall Efficiency (lbf/W),319A Temp (ºF),66NA Temp (ºF),4LHE Temp (ºF),App message,
0.2332109999507666,1011.3541624984646,,-0.000244986362572109,0.05223711387326003,50.944352187175454,-0.01590841987973459,0,0.8104440401876671,0,0,0,0,78.670625,77.1125,88.925,,
0.2338957499742508,1035.9381124984066,,-0.000710798503998297,0.046821011537610514,50.94419506967908,-0.013711925000116653,0,0.6985429645593162,0,0,0,0,78.575,77.1125,88.925,,
0.7191217499643564,1060.2332624988048,,0.0006502800589356894,0.05402071265310272,50.94430231523801,-0.014339900761115954,0,0.7305361886379569,0,0,0,0,78.575,77.1125,88.925,,
1.1914207499623297,1083.8571499983664,,0.0014751575133061514,0.05667398830475272,50.94443202411952,-0.013126051494923907,0,0.6686992501511382,0,0,0,0,78.575,77.1125,88.85749999999999,,
1.6692197499632833,1107.7297749985883,,0.0007001141324760197,0.05462502720516878,50.944562271214274,-0.015417013163752203,0,0.7854129841075148,0,0,0,0,78.575,77.1125,88.8125,,
2.1465299999624494,1131.5851249986736,,-0.0009907819920164799,0.04125755602570127,50.944473017462926,-0.015960050520953097,0,0.8130763147758481,0,0,0,0,78.575,77.1125,88.806875,,
2.6409764999628074,1156.3060249984846,,-0.00022467430062969343,0.043829302285754684,50.944480682952616,-0.013362956734743548,0,0.6807688836185405,0,0,0,0,78.575,77.1125,88.7,,
3.122023499962688,1180.3067124990048,,0.16452160683259445,0.08661347534503741,50.864590085888565,1.4129678706689213,0,71.82810186803057,0.002555362701762921,0.001457473240376672,0,0.00018562554533312872,78.575,77.1125,88.7,,
3.636516999965907,1200.4859674995241,,0.5924121843496782,0.8172038679592888,50.771513526031384,2.3378020402598074,489,118.68190869495682,40.70915169417174,40.22679308239039,0.013768312248051801,0.007987004868927429,78.501875,77.1125,88.62687500000001,,
4.144694749969245,1206.2228524998354,,0.3247110928283051,1.4933469122921477,50.82361420845036,1.2782600551965961,865,64.96511712086019,39.734397436489616,60.900766498002255,0.038340543948212555,0.023160192580919423,78.4625,77.1125,88.5875,,
4.636309749963879,1211.1415924997127,,0.27015818707031675,1.5226166119419051,50.822997323125676,1.289157504373317,902,65.51863682958603,34.62495757064878,52.87173147340999,0.044049860038898665,0.023286212400862705,78.4625,77.1125,88.565,,
5.12467074996829,1216.0219649997307,,0.28514448389175967,1.6135237140829333,50.814970108501356,1.3526557858167059,939,68.73509382931023,38.00849728814785,55.319269594146306,0.04244865349216693,0.023484425412072175,78.4625,77.1125,88.475,,
5.623122499963642,1221.0095274998457,,0.31032144343611223,1.7335086597360818,50.80136485004023,1.503571158859391,973,76.38338315082694,42.87992425615967,56.135679725169915,0.04045013775580929,0.02269992921018449,78.4625,77.1125,88.475,,
6.1263787499606615,1226.0356224997668,,0.3277252153674149,1.8968296550778196,50.78880248958775,1.602765009595436,1008,81.40223853571094,46.914946735444374,57.67015799093853,0.040433593802982025,0.023319198808982044,78.4625,77.1125,88.31750000000001,,
6.625826249966025,1231.0382824998233,,0.3662608087888732,2.150995705577512,50.76761367551584,1.8624650174583934,1048,94.55213042617238,54.51402241462277,57.61740635873777,0.03953308073225129,0.022767617127823096,78.4625,77.1125,88.25,,
7.113780499958992,1235.9135774997703,,0.40752502989967354,2.3578569615372387,50.74443945699138,2.0958463460324426,1099,106.35244249038769,63.5982029715103,59.81285106729987,0.03707890949705476,0.022176225854821888,78.434375,77.1125,88.165625,,
7.626983749964833,1241.0420499998145,,0.41923985009149256,2.5405528639843666,50.727946674896614,2.2044284489755475,1137,111.82566775104992,67.70609146126425,60.5541368099148,0.0375490789586414,0.022730238626601052,78.35,77.1125,87.9125,,
8.112655999961495,1245.9146824997442,,0.4364117690160448,2.58620541995456,50.71141418949462,2.3393913205791046,1171,118.63353773239483,72.5680043476617,61.1727304707818,0.03565323853050495,0.02181045392623413,78.35,77.1125,87.9125,,
8.599964249956606,1250.7725199997658,,0.4640272157182645,2.7646752994149444,50.69026492651393,2.5451906458781606,1209,129.01600665688974,79.64040935565481,61.73695343304657,0.034717850022810776,0.021432786179448906,78.35,77.1125,87.64250000000001,,
9.126635999968649,1256.0303549997916,,0.4807178059843705,2.976625602396354,50.673188608122445,2.655489873959149,1236,134.56201594880042,84.34747848594664,62.683810834799985,0.03529046363536098,0.02212088779186183,78.35,77.1125,87.575,,
9.627024249956012,1261.0544049997989,,0.5086018218840581,3.1048519611363585,50.65291756481944,2.8204576130654777,1264,142.8637874263059,91.30339249812666,63.92399002458037,0.03401566125682842,0.021744731182593856,78.35,77.1125,87.423125,,
10.11091499996483,1265.8902749997796,,0.543434067487279,3.3148861009143804,50.62569546367502,3.1411966070401847,1302,159.02437326749344,100.44519497221219,63.17258627680876,0.03301088527481018,0.020853737763004115,78.35,77.1125,87.2375,,
10.612907749971749,1270.8995774997748,,0.5656579610263996,3.5416714395448685,50.60594800569566,3.2699973454050673,1336,165.4809678572703,107.30839303478088,64.85419080412828,0.033007724057681626,0.021406461261850893,78.35,77.1125,87.2375,,
11.111854499965904,1275.8972924997797,,0.5813545725101266,3.6397992741489196,50.58821218889414,3.3651651584665094,1367,170.23761904856673,112.82273776592874,66.28050290530624,0.03226158974204166,0.02138370660461818,78.35,77.1125,87.02375,,
11.598711999973654,1280.7683449997567,,0.5969530703040543,3.8848674139377466,50.56938529756272,3.518649210570744,1389,177.9355870837173,117.7054975175406,66.1561688160883,0.033008577577901675,0.021837358555982903,78.35,77.1125,87.0125,,
12.090161249974372,1285.6829449997167,,0.638775945958389,4.041154297562403,50.5397466005886,3.862057257204776,1423,195.18643098596678,129.09793137106038,66.13353677917213,0.03133189082210875,0.02071563650510722,78.35,77.1125,86.9,,
12.58963949995637,1290.6636124997458,,0.6733069274825315,4.264623144421679,50.509768334535494,4.160714800227049,1461,210.1563137691613,139.70395925407453,66.47485899114884,0.030527184972311498,0.020292708337922395,78.35,77.1125,86.7875,,
13.092322499957683,1295.7072249997873,,0.6968611011233272,4.432846203400888,50.48505597632511,4.339347158593069,1495,219.07177431880126,147.89095511537408,67.51890154038217,0.02997504942451419,0.02023939798829824,78.344375,77.1125,86.781875,,
13.58393774995804,1299.6398874999431,,0.7169632772425534,4.667814907093803,50.460423915193445,4.561445955949613,1520,230.17166140824696,154.71978015040665,67.21969350955519,0.030180302529955846,0.0202860256763958,78.2375,77.1125,86.675,,
14.099477749961617,1300,,0.7277138796322591,4.79130325994641,50.44329551167799,4.613821030345401,1537,232.73629374322135,158.83111197360068,68.24748912336483,0.030168191080637022,0.020586984923700747,78.2375,77.1125,86.675,,
14.606635749968884,1300,,0.727391577180676,4.858808151214134,50.42986218963091,4.660260812741565,1536,235.0162666731472,158.6796628018041,67.52008049388067,0.030620951344662414,0.020675024196548587,78.2375,77.1125,86.52875,,
15.107925749969478,1300,,0.7304992289418273,4.935831636944299,50.419406848184124,4.653118651877704,1536,234.60726012159753,159.32431226623257,67.91703293901969,0.030980325848981027,0.021040322819848543,78.2375,77.1125,86.45,,
15.607566749969124,1300,,0.7387868557197727,4.960557690761088,50.40485058343965,4.729575675622209,1545,238.39281461585566,162.1163164304789,68.03252375022976,0.030609505909735962,0.02082510192771525,78.2375,77.1125,86.4275,,
16.129978249964118,1300,,0.719131566851838,4.8585004813415456,50.403574950944346,4.610330310944489,1537,232.37706886449232,156.9198361171873,67.52871466622028,0.03096225929331663,0.020908328163745327,78.2375,77.1125,86.3375,,
16.6406094999671,1300,,0.7253137196181442,4.842251611748559,50.39412843754107,4.6313848065896055,1537,233.3945541343303,158.31197986228895,67.83273430585254,0.030586750106879623,0.020747783965710025,78.2375,77.1125,86.3375,,
17.14385874996782,1300,,0.723506354476891,4.823530382583684,50.386136264679664,4.650495946886094,1535,234.32051872239703,157.70842919287765,67.30484711161668,0.030584968792028572,0.020585202827049596,78.2375,77.1125,86.14625,,
17.654753999969362,1300,,0.7322766889583009,4.936175094265442,50.37802991166503,4.641930677932173,1532,233.85130737955825,159.30351437208282,68.12287142770506,0.03098592398299148,0.02110860387644727,78.2375,77.1125,86.1125,,
18.15602374996245,1300,,0.7283613910892884,4.876840876228818,50.3692143787801,4.688884208267409,1534,236.1751339295851,158.67307072944382,67.19523747486033,0.030735366451876234,0.020653910490105194,78.186875,77.1125,86.061875,,
18.652438749966024,1300,,0.7279587937138158,4.8541384216473125,50.363222412723545,4.671616634602248,1537,235.27765098164787,158.84381668624022,67.51527127188942,0.03056044815196053,0.02063297395047131,78.125,77.1125,86,,
19.16254949996472,1300,,0.7202999727285336,4.767679254911899,50.36058057138668,4.6087305280049,1536,232.0982229733375,157.04489528221677,67.6677335400267,0.03035842934504038,0.020542401763102538,78.125,77.1125,85.98875,,
19.663951499971745,1300,,0.7277580958737581,4.873882946578792,50.35177089105889,4.649788136412746,1537,234.1248875893438,158.86577893350096,67.86856022189298,0.030681377994018853,0.02082374892125963,78.125,77.1125,85.775,,
20.16115949997604,1300,,0.7197890905486861,4.831728261459246,50.349052239236016,4.608200512674183,1536,232.0184911365555,156.9534771741928,67.64822988563871,0.03078504981408792,0.020824864199251728,78.125,77.1125,85.775,,
20.665395749965306,1300,,0.7241916067180586,4.83687384879066,50.341056222668705,4.655464638530275,1535,234.36092001086473,157.8795404037075,67.36923289589868,0.030639024531114688,0.02064020631469744,78.125,77.1125,85.62875,,
21.189432499969005,1300,,0.723826622261296,4.821587773711499,50.33608941355589,4.637617851798476,1536,233.43952051833307,157.85309564137273,67.6224120327425,0.030544505950659325,0.020655616836707098,78.125,77.1125,85.55,,
21.69614524996877,1300,,0.7301755791724456,4.778313293908854,50.32826276781645,4.686510557404519,1536,235.8637363490309,159.25935911252506,67.53237497654165,0.030007229366231337,0.02026310658098966,78.125,77.1125,85.48249999999999,,
22.19207374995649,1300,,0.725978352135367,4.8047279339873175,50.326320656780915,4.616299112918233,1536,232.32134788967147,158.28491711021857,68.13632603558288,0.030355431363747652,0.020681697171512053,78.125,77.1125,85.325,,
22.703418749955297,1300,,0.7132079742980841,4.746757265615371,50.32423876128416,4.573804248752512,1536,230.17312645328542,155.5164916414918,67.56838943244034,0.030522256178504358,0.020622179583867313,78.125,77.1125,85.325,,
23.218425999969245,1300,,0.721476574214687,4.787008667031994,50.316497857996325,4.641894518429103,1538,233.56376518466578,157.5387327259662,67.45818459460642,0.03038769389352641,0.020498023979420573,78.125,77.1125,85.1225,,
23.729428749966623,1300,,0.7183753534943673,4.799696080170852,50.31385337141657,4.609578957279291,1535,231.92563022671325,156.5404993823574,67.49720823468515,0.030660036163601412,0.020694309617141658,78.125,77.1125,85.1,,
24.26531749996841,1300,,0.7175432853215417,4.7795986675472175,50.309878426479706,4.594878957762136,1536,231.16777635634872,156.43716636173738,67.67418664367646,0.03055260919430273,0.020676404683955815,78.125,77.1125,85.0325,,
24.784759499970082,1300,,0.7137596892715515,4.7668653508822345,50.307124852852766,4.580042760468515,1536,230.40876122320438,155.6850705849859,67.57188184868785,0.030618558961840497,0.020689114494924617,78.125,77.1125,84.9875,,
25.309249749967456,1300,,0.7056151098558695,4.626468947507042,50.304344930360074,4.5582631741325725,1539,229.30043602176215,154.13757890223454,67.22143988360234,0.03001516146851429,0.02017662394761237,78.096875,77.1125,84.959375,,
25.83374049995541,1300,,0.707453140455661,4.657717019434106,50.298914175719204,4.593244093597643,1536,231.0351601681919,154.30272989016106,66.79070619614751,0.030185572750519894,0.02016097738018814,78.0125,77.1125,84.875,,
26.357785249966383,1300,,0.7124670940770328,4.748690989397694,50.294628516676,4.586118440147621,1534,230.65712633843017,155.22342289783825,67.29836983507751,0.030592765058873955,0.020588074049095417,78.0125,77.1125,84.875,,
26.865354249966146,1300,,0.7242943848265787,4.839547465370007,50.28860787924517,4.608621453080381,1531,231.76114406004416,157.40332703580935,67.91848648075687,0.030745989140127637,0.02088245508058499,78.0125,77.1125,84.6725,,
27.39471724997461,1300,,0.7310179183796696,4.808330230220186,50.28216031887278,4.651318630750812,1531,233.87828795979672,158.92078854014864,67.9553888138788,0.030257983483155903,0.020560197710795414,78.0125,77.1125,84.65,,
27.917460749962924,1300,,0.7264934349750745,4.808711765116963,50.27887632590253,4.6336334784905695,1533,232.97386649276254,158.1385483837523,67.87964160783562,0.030409268038528,0.020640769227002812,78.0125,77.1125,84.5825,,
28.41710799996257,1300,,0.7252269426100075,4.844587687615842,50.275643530050004,4.639791222652902,1530,233.26848182048428,157.5756082576435,67.55189623586071,0.030744363722951022,0.02076845015621925,78.0125,77.1125,84.5375,,
28.91498499997258,1300,,0.7243115089427682,4.759998640185668,50.272414326123965,4.630539374115756,1532,232.7882801336426,157.56814177884897,67.69230444491856,0.030209778431111584,0.020449914949654317,78.0125,77.095625,84.52062500000001,,
29.42398674995899,1300,,0.721192484873597,4.7427586501240855,50.26945103542703,4.636716793631865,1532,233.08518153756728,156.8652456413882,67.3012477617826,0.030234976469358667,0.02034794858486173,78.0125,77,84.425,,
29.954155499961967,1300,,0.7283644158230341,4.919151895558315,50.26415020396849,4.666017481693186,1528,234.5333901639599,158.05893647878727,67.3933205549441,0.0311216437192754,0.02097427024057147,78.0125,77,84.425,,
30.501890249958638,1300,,0.732098074949694,4.911004470036044,50.260146107538574,4.660267458372145,1528,234.22564776557041,158.85757193969397,67.82591545534572,0.03091509715975542,0.02096880587689734,77.91125,77,84.32375,,
31.01589899996519,1300,,0.730247916801789,4.87489671588281,50.25605186489921,4.6854054076700375,1528,235.46992397645698,158.43056106076347,67.28520545211055,0.03076990300270516,0.02070314985067973,77.9,77,84.3125,,
31.536196499958635,1300,,0.7361054758290027,4.910816135900111,50.25023523925266,4.745970579323907,1527,238.48610945573347,159.5883476617642,66.91875911608587,0.030771851914620948,0.02059187998332873,77.9,77,84.250625,,
32.06917624996304,1300,,0.7335510386011382,5.043075524470672,50.248959627671866,4.713220680311884,1527,236.83438280360429,159.02535808380765,67.15035396990936,0.03171226020363451,0.021295901807337245,77.9,77,84.2,,
32.58774924996495,1300,,0.7326287906251343,5.0748652349164285,50.245908280155724,4.70896324330198,1527,236.60613104614404,158.82375384695584,67.12696522642516,0.031953433254380895,0.021448850078040926,77.9,77,84.16625,,
33.10229224996864,1300,,0.7367892353351773,4.954981608973283,50.24196224402216,4.714442964792659,1531,236.86271121612396,160.16743447695097,67.62754141335922,0.03093934380422623,0.020922572161046548,77.9,77,84.0875,,
33.62207349997461,1300,,0.7312593751834294,4.946379688975284,50.24109965645171,4.680138331034081,1527,235.13524264813177,158.50480805412352,67.41182342270497,0.0312063415893442,0.021036633163126126,77.9,77,84.0875,,
34.14182399996519,1300,,0.7362400666450333,4.9888086023112885,50.237018765211324,4.715267901460204,1525,236.88091133447452,159.4338678600379,67.3093704956764,0.03129114662029832,0.021061853424206235,77.9,77,84.0875,,
34.65672924996615,1300,,0.7329776639020423,4.916185516662177,50.23677183654259,4.656365794621611,1525,233.9207609853732,158.74739034707463,67.86593910566243,0.030968814598180287,0.02101736111173093,77.9,77,84.0875,,
35.15632024996579,1300,,0.7277169415362335,4.990209053996879,50.23506818791337,4.649850908999969,1527,233.58556114162147,157.77735645900378,67.54744425828756,0.03162825451363579,0.021363630485746084,77.9,77,84.0875,,
35.65582024996876,1300,,0.7319255232115983,4.977250302261445,50.233296373229386,4.626268184356668,1526,232.39264581700976,158.61179110494237,68.2539790028736,0.03138012541443832,0.021418270826178813,77.9,77,84.0875,,
36.1632157499671,1300,,0.7295063234553764,4.866499098482832,50.230402212541826,4.639915645779121,1528,233.06480615876953,158.3044465019231,67.92501064248327,0.030741191807660544,0.020880615327427448,77.9,77,84.070625,,
36.67968599996865,1300,,0.720104490376133,4.804075563011877,50.23072542227859,4.596400516749922,1531,230.88052640006845,156.55074780525766,67.80617302117561,0.030686451986494362,0.020807407331487487,77.9,77,83.975,,
37.18905199995935,1300,,0.7147131548932296,4.657369538975,50.23058593905405,4.578318220484621,1534,229.97153256856214,155.68642851015963,67.70241729823036,0.029916015079270053,0.02025483506609047,77.9,77,83.975,,
37.69634299996496,1300,,0.7127049648811368,4.705835650148924,50.228986801549595,4.575228610421465,1536,229.80898389650264,155.40975862675813,67.63348370929953,0.030280674015832433,0.020480805883228426,77.81,77,83.975,,
38.193657499963045,1300,,0.7104015225698119,4.719209479961896,50.22836189416935,4.545481508953338,1535,228.312077199777,154.80376362295152,67.80460790177193,0.03048516200713396,0.02067035854041948,77.7875,77,83.975,,
38.71510624997019,1300,,0.7073257750716696,4.760939309051021,50.226854252476144,4.546646670573027,1534,228.3637562998735,154.07197538547487,67.46853038901341,0.030900783740924254,0.020848188252835093,77.7875,77,83.975,,
39.233291249957674,1300,,0.712703330610657,4.701783174968128,50.22476016988055,4.539046908500073,1532,227.97248628486355,155.01868855302817,68.00098274929016,0.030331381977008035,0.02062598632653058,77.7875,77,83.975,,
39.7792599999547,1300,,0.7140064583183208,4.764852503016043,50.222753609261915,4.53506215158166,1532,227.76330513612237,155.29301580370227,68.18304317917531,0.030683311929321444,0.020921701473004005,77.7875,77,83.975,,
40.28980424996614,1300,,0.7139459988872499,4.78846653332559,50.21975314474247,4.564481065638417,1530,229.22701104935237,155.12495330106347,67.67952163688065,0.030868177035190292,0.02088989296847114,77.7875,77,83.975,,
40.80254124996961,1300,,0.7206449460026433,4.847856828117615,50.21458041608774,4.635392457299642,1528,232.76428500610103,156.3693258693934,67.18010912906861,0.031003083920687336,0.020827510656266906,77.7875,77,83.975,,
41.311915999960895,1300,,0.7231219552336331,4.84688532444731,50.2130080417398,4.610771741565441,1528,231.52070364946127,156.8763013235681,67.76080885380162,0.030896341729730024,0.020935863935089845,77.7875,77,83.975,,
41.81792274996042,1300,,0.7182570700447395,4.722339817187517,50.21247725942347,4.592529317882684,1532,230.6022517300026,156.19156256460067,67.73381724521337,0.030234373596671877,0.020479152528802374,77.7875,77,83.975,,
42.32281299996375,1300,,0.7147420587479605,4.7932189339857505,50.21229999678611,4.563288771919756,1530,229.13321996402698,155.25854966018088,67.75966876331887,0.030872383436703364,0.020919206301819423,77.7875,77,83.93562499999999,,
42.835863749966016,1300,,0.7195415031082975,4.859061109566056,50.20926256793096,4.576707025545145,1533,229.7930234861833,156.63721246973142,68.16837645874281,0.03102323335832941,0.02114740504020151,77.7875,77,83.8625,,
43.351551249969006,1300,,0.7184867772456541,4.85043487794362,50.20792874911375,4.586967582868213,1529,230.3021245876419,155.98158734252667,67.73052812107865,0.031096479763162314,0.021061920452779118,77.7875,77,83.8625,,
43.87490849996507,1300,,0.7180183184952913,4.710831744096846,50.20617260655826,4.596459289976311,1531,230.77061170518863,156.1140914132231,67.64999513050081,0.03017529919673247,0.020413065072711328,77.7875,77,83.75,,
