Time (s),ESC (µs),Servo (µs),Torque (lbf·ft),Thrust (lbf),Voltage (V),Current (A),Motor Optical Speed (RPM),Electrical Power (W),Mechanical Power (W),Motor Efficiency (%),Propeller Mech. Efficiency (lbf/W),Overall Efficiency (lbf/W),319A Temp (ºF),66NA Temp (ºF),4LHE Temp (ºF),App message,
0.23142974999984728,1010.9118289473467,,0.005650768563678714,0.08961360819004302,49.711330883929875,0.24962523806435497,0,12.409203680870856,2.2832475078462356e-33,1.866615431159727e-32,0,0.007221590730202903,77.45,74.4125,100.5125,,
0.234463249999471,1034.6611249999842,,0.007052588182055303,0.09177542867654413,49.71270040406223,0.25153194450600413,0,12.504331964223525,1.04843068677727e-43,8.37205068293466e-43,0,0.003291489938465208,77.45,74.4125,100.5125,,
0.7299872499993071,1059.4261624999808,,0.006945170245221345,0.09196760383795281,49.71418710418566,0.25252609293419964,0,12.554129346225816,0,0,0,0,77.45,74.4125,100.799375,,
1.22410749999946,1084.147637499982,,0.0076796860216082835,0.0961278132928111,49.71573451654872,0.2526427505690689,0,12.560319891631385,0,0,0,0,77.45,74.4125,100.85,,
1.7154307499992663,1108.675999999973,,0.007999525988948894,0.09689189839877117,49.716931257096036,0.25201016082133915,0,12.529171852719895,0,0,0,0,77.45,74.4125,100.968125,,
2.207456249999441,1133.350224999972,,0.00806011459047127,0.09646411256686607,49.718219132405544,0.25119430652459995,0,12.488933338505035,0,0,0,0,77.45,74.4125,101.1875,,
2.688219249999523,1157.3401124999828,,0.009951547744948736,0.09577289042062431,49.71124145295978,0.41389285167986606,0,20.573109648334952,0,0,0,0,77.45,74.4125,101.1875,,
3.1800512499990874,1181.9611874999691,,0.4415481557203115,0.24502534491833722,49.633176788941135,1.8256181273164551,64,90.59087851603039,6.346523810478752,5.527915255651445,0.07634083494196396,0.0018338095311489055,77.45,74.4125,101.49125000000001,,
3.6553372499993073,1200.8523291666552,,0.5501342682463705,1.1432492052169811,49.60955630726401,1.9973229273778539,756,99.08566678194633,57.85288381638994,58.592887708931244,0.019918622457998372,0.011781706037173231,77.45,74.4125,101.525,,
4.1331857499995275,1207.751569999986,,0.35974967115771156,1.7989993643642832,49.618607121777885,1.7328228796559315,917,85.98017759129786,46.74837742132053,54.331785336016125,0.03876615317056132,0.020974163715622777,77.45,74.4125,101.60375,,
4.629840499999281,1214.3632533333246,,0.33059833798369115,2.0590353416852056,49.612852242375816,1.781462989165361,965,88.3832956637277,45.324097278935795,51.26268748477095,0.04545916227121919,0.023295595276307986,77.45,74.4125,101.75,,
5.1244489999993705,1220.9558333333214,,0.3497630007105002,2.258172182796863,49.60141507537852,1.9282109590313667,1010,95.64152046303883,50.15635231275102,52.45742001293835,0.04506528224285997,0.02363758409731115,77.45,74.4125,101.75,,
5.632514499999583,1227.7304766666543,,0.4078373841127386,2.5215670064366353,49.574982048863355,2.3314444960617036,1075,115.58075453654253,62.28263684631878,53.84392131733008,0.04055320646369326,0.02182015611875615,77.45,74.4125,101.5475,,
6.122654499999246,1234.2651299999902,,0.42333048283152414,2.814184783964955,49.56187181410408,2.4462111592109927,1129,121.23866352070566,67.87093203060275,55.993794738705866,0.04146399157878688,0.023214974199336547,77.45,74.4125,101.525,,
6.624532249999139,1240.9729233333248,,0.4501834025148564,3.0314555151248683,49.5446487639863,2.6571412262473357,1172,131.6468366511364,74.94855145690512,56.91845121678415,0.04046673743637617,0.023029267885510334,77.45,74.4125,101.37312499999999,,
7.107130499999317,1247.4026266666554,,0.48281207084170996,3.248339583642357,49.525615630831894,2.891189755950593,1217,143.1873381434193,83.45648976593523,58.26912135012807,0.038956759491908535,0.022695099909021122,77.45,74.4125,101.1875,,
7.594727249999065,1253.8981699999883,,0.49861806660412666,3.471299574002648,49.511680872725684,3.0207013601736703,1253,149.5593323198986,88.71490454695363,59.327784638526325,0.039145515455240504,0.023224358083192048,77.45,74.4125,101.1875,,
8.099884999999496,1260.6128199999946,,0.544849509464095,3.699968169413433,49.48605712061543,3.364443266348463,1300,166.4922955823979,100.60008187878779,60.42094784958222,0.036793512360912946,0.02222987685786691,77.45,74.4125,100.97375000000001,,
8.618492749999465,1267.5430833333232,,0.5720698806398871,3.978632556620928,49.46495911954966,3.599297756797725,1343,178.03848137952988,109.10725547149218,61.28996422158135,0.03646606700192611,0.02234920798785649,77.45,74.4125,100.9625,,
9.117373499999195,1274.194886666657,,0.6016218101994497,4.19418910231518,49.44493916748743,3.8144668560762343,1383,188.60570728553833,118.16135299642113,62.655559369063155,0.03549725903334714,0.02223824059578369,77.5175,74.4125,100.8275,,
9.61038774999948,1280.7769133333227,,0.6417332158284332,4.509687913602477,49.4176816165261,4.191282571757708,1424,207.12279009912308,129.80528930371497,62.65933765281642,0.03475937340093537,0.021776295447669274,77.5625,74.4125,100.7375,,
10.18792049999917,1288.3832399999892,,0.6768468549596005,4.694802310289761,49.38856839969171,4.5199843489560925,1472,223.23448211972112,141.43214308628612,63.357118928981514,0.03320120544610775,0.02103556428662425,77.5625,74.4125,100.60249999999999,,
10.761691249999219,1296.1122599999885,,0.7136891574219918,4.965788640729942,49.35919523353202,4.852549711125505,1516,239.51647869944063,153.622592423874,64.13151486605283,0.03234559799188163,0.020741649986169893,77.5625,74.4125,100.4,,
11.27158549999958,1302.923496666657,,0.7487709433603638,5.255556753611473,49.33022715129576,5.209382898133018,1560,256.979254810295,165.82099191272937,64.53267807831922,0.03169594765473821,0.02045410461165646,77.57375,74.42375,100.36625000000001,,
11.759004499999527,1309.4279599999911,,0.7876113865710852,5.49045069776819,49.30144252727145,5.567823181275917,1601,274.5005405080743,179.0796314377121,65.24065091528884,0.030663291574284053,0.020004903825150785,77.675,74.525,100.0625,,
12.269777999999466,1316.210709999987,,0.8249609717346453,5.810648396188332,49.27130252747992,5.892802875995794,1644,290.3440691255392,192.55100605363538,66.31968015973862,0.030187556691671488,0.020020080485063173,77.675,74.525,100.0625,,
12.781928249999508,1323.0593633333215,,0.8668523144429112,6.136877030252962,49.23685733103257,6.309762882989902,1690,310.6719804087526,208.06259988981392,66.9709572113377,0.02949757799284894,0.019754619261869204,77.675,74.525,99.7475,,
13.280292999999228,1329.7050399999875,,0.8977828116015802,6.427718898897021,49.2065007422786,6.653314491932146,1732,327.38528550718956,220.83302014194214,67.45733638235461,0.02910773419523141,0.01963534371236449,77.675,74.525,99.6125,,
13.783885249999255,1336.4141099999906,,0.9389712641687094,6.8257484247249955,49.17201908901138,7.091660140149168,1771,348.71052045540426,236.17054301165044,67.7305485953755,0.028900881987137878,0.019574473800071275,77.675,74.496875,99.528125,,
14.283037749999016,1343.06736999999,,0.9738116901282045,7.085818765085002,49.141415129504466,7.44802891652714,1800,366.0057645164378,248.90441888232013,68.01641580317015,0.02847221360849578,0.01936445218058709,77.675,74.4125,99.275,,
14.81151599999927,1350.1009333333254,,1.0169175250380844,7.360639471951772,49.10250138705158,7.967863081363239,1838,391.2392707031579,265.4456085842584,67.85077731917463,0.02773418484040407,0.018817912111541237,77.675,74.4125,99.275,,
15.315025999999602,1356.8345766666594,,1.0622885437980671,7.677645592050571,49.063107096903174,8.480846544825443,1881,416.0950376790364,283.67406735059234,68.17305774133075,0.02707100887660402,0.018454151361871618,77.57375,74.51375,98.97125,,
15.830204249999671,1363.690333333324,,1.1085868784767308,8.025193542299425,49.02108521426288,8.998561906835096,1926,441.1166176863997,303.2085795817923,68.73466641566975,0.026472512898674878,0.018195516042657175,77.5625,74.525,98.9375,,
16.33376399999922,1370.4111699999899,,1.1558376681452045,8.415875945706809,48.972252896554515,9.70642775244283,1966,475.34165286867227,322.6706889268222,67.886846802261,0.026087502660219322,0.017710456648575172,77.5625,74.525,98.825,,
16.828860249999074,1377.0275933333253,,1.1965374288591544,8.704531670509175,48.93430903849849,10.136923859161772,2004,496.0423735411761,340.42399197711785,68.63112520808144,0.025569857014034466,0.01754898258130248,77.5625,74.525,98.7125,,
17.328669249999333,1383.6750766666564,,1.2250006469064374,8.99376369113488,48.90723000862021,10.355813286474078,2033,506.47402539694247,353.64807117046456,69.83045460047532,0.025431214075605585,0.017758988004871117,77.5625,74.525,98.6675,,
17.82112524999939,1390.254673333322,,1.2398460672492917,9.147878940611397,48.88532978899286,10.581722203947956,2050,517.2894990020027,360.80610908657025,69.7490388170922,0.025358550427199596,0.017686325477195793,77.5625,74.525,98.2625,,
18.30751599999946,1396.7449533333277,,1.294061296908533,9.488791522332713,48.844151684265434,11.142279517410666,2085,544.2320895882053,383.04782922434765,70.39973801638828,0.024772021528118603,0.01743956129787874,77.5625,74.525,98.2625,,
18.8237577499995,1403.5766566666537,,1.3277151634513302,9.756350905023774,48.80895462910829,11.558971140120752,2116,564.1765117815706,398.81473261751904,70.71643045616834,0.02446511679985774,0.017301816751211355,77.5625,74.525,98.043125,,
19.381923749999515,1411.03009999999,,1.4153415842385197,10.237421964891364,48.724088030714874,12.98105515386212,2170,632.4768660028833,436.13329141740434,68.97483190982614,0.023480494828549314,0.01619691951953437,77.5625,74.525,97.925,,
19.950401249999366,1418.5781599999923,,1.4660841863062055,10.740331350626931,48.667140118851385,13.735703739631933,2211,668.4737706549624,460.1744002491714,68.83857019572704,0.023340961146831235,0.016067521816475205,77.5625,74.525,97.82375,,
20.55702774999933,1426.736716666658,,1.5301529367168236,11.225247874791894,48.60605220386937,14.537197037858746,2259,706.5909210749679,490.732078668369,69.45985467239977,0.02287494393679313,0.015888853882706465,77.5625,74.525,97.7,,
21.061175749999563,1433.4482066666544,,1.5740933280517344,11.604917855329155,48.5476212472075,15.397786039011077,2299,747.5214400912378,513.7377449002873,68.73085786788954,0.02259078407155479,0.015527163804793414,77.5625,74.525,97.59875000000001,,
21.55893849999942,1440.0817433333239,,1.6168651091591373,11.922974364460664,48.486202406668966,16.374455853886367,2335,793.9291597415216,535.9430761169526,67.51221210161638,0.02224798488863662,0.01502045187064642,77.5625,74.525,97.3625,,
22.058211499998997,1446.7413533333213,,1.6695416859319716,12.323901281398285,48.43133426108946,17.147508105876994,2365,830.4758423583244,560.6744069653541,67.51586679976023,0.021980555238541147,0.01484026376832265,77.5625,74.525,97.3625,,
22.56111424999926,1453.4442633333229,,1.6831493792207213,12.532445202733719,48.42834941490729,16.881372347095144,2372,817.5362123041423,566.8994612826111,69.34935801396018,0.022106983047562236,0.015331201561846286,77.5625,74.525,97.266875,,
23.063197999999485,1460.1430599999887,,1.6824718036664568,12.603571300532534,48.439541056689094,16.43835176726573,2373,796.2655444480828,566.8781592614016,71.19631627055894,0.022233393071329002,0.015829458989117,77.5625,74.525,97.25,,
23.569377249999434,1466.8855233333256,,1.7199724477742595,12.768351501441224,48.40963770843044,16.902957512541327,2394,818.2577142130137,584.7315301820988,71.4769098883132,0.021839261483352423,0.015611232256813998,77.61875,74.58125,97.1375,,
24.065958499999248,1473.5163266666564,,1.7766658680881164,12.959782193639272,48.332787219073296,18.378355369622934,2440,888.2681270472149,615.4296000813414,69.30361269124505,0.02106038834198121,0.014596843773486466,77.675,74.6375,97.025,,
24.56162749999929,1480.119139999994,,1.8189462243834837,13.34941534885795,48.2881800942687,19.050675462053118,2471,919.9149972328289,638.2286676801249,69.4006253054587,0.020918589761900697,0.014516679330760689,77.669375,74.6375,97.025,,
25.058889499999673,1486.7543566666586,,1.8576817057008177,13.650867461949542,48.261848407017624,19.12859901006276,2507,923.1693791094465,661.1728415460358,71.66460354843393,0.02064675480033328,0.014797293120110435,77.5625,74.6375,97.025,,
25.55330674999943,1493.3464166666577,,1.8798208277828414,13.843853977542578,48.21457297655757,19.896505850998885,2541,959.2943890970973,678.2445738686444,70.72233900937374,0.02041288394870162,0.01443662961480708,77.5625,74.6375,97.025,,
26.059154499999625,1500.0798466666529,,1.936909680239004,14.205917858079653,48.14232821114554,21.220150185942625,2581,1021.5785737745758,709.7930666593718,69.50413148534554,0.020014988163132234,0.013912159658134141,77.5625,74.6375,96.9575,,
26.550386249999427,1506.648393333324,,1.9815608952569201,14.607655131096555,48.0984095031071,21.932069128567015,2603,1054.8797054125,732.2879737775985,69.44519641689585,0.01995139136049238,0.013856275455893673,77.5625,74.6375,96.9125,,
27.045651499999497,1513.2421133333214,,2.040800372601243,15.007630083348245,48.028241671193946,23.167367272776445,2636,1112.6791834438504,763.9016220049909,68.66557263868017,0.01964650506640072,0.01349048337637923,77.5625,74.6375,96.929375,,
27.557292999999504,1520.0519233333214,,2.0803933413886946,15.291555284026117,47.97832288398473,23.957824250799398,2665,1149.4490794558528,787.3170953321055,68.52619637556879,0.019422392799553396,0.013309741071097045,77.5625,74.6375,97.025,,
28.05762624999909,1526.7309833333238,,2.126058684580717,15.655057156869352,47.92500042106275,24.825762911867237,2694,1189.7475791323309,813.3032312091043,68.39807722854462,0.019250221568994523,0.013167875585810448,77.5625,74.6375,97.025,,
28.56006074999915,1533.428143333321,,2.2094329309007965,16.20347472140423,47.77829150767244,27.73983349224318,2742,1325.34589873626,860.0720673096005,64.90025078780684,0.018840446007655328,0.01222762228769171,77.5625,74.6375,96.940625,,
29.05510924999927,1540.0417399999885,,2.252859021401062,16.61993234497306,47.69712878720916,29.08871725603845,2780,1387.4429259394926,889.2843183590492,64.0979936439359,0.01868938325787118,0.011979512798083743,77.5625,74.6375,96.9125,,
29.54315124999937,1546.5471599999885,,2.281605562524182,16.925971080491742,47.61988560555566,30.484211420628743,2802,1451.6417609657274,907.595052356238,62.53147056607935,0.018649189468646875,0.01166157014495076,77.5625,74.6375,96.9125,,
30.048416749999575,1553.2662266666553,,2.319735110912845,17.324938741046875,47.5481625652946,31.731571918785097,2821,1508.7670643499505,929.2609931951947,61.59669527133654,0.018644032604997078,0.011484244593009212,77.5625,74.6375,96.9125,,
30.561169999999276,1560.105533333322,,2.3600673410610393,17.70739995336333,47.468283047449965,33.23295793816648,2837,1577.507236019061,950.7471776070163,60.27007754868963,0.018624718567393315,0.011225161253702836,77.5625,74.6375,96.9125,,
31.074022249999636,1566.9483033333213,,2.3866513636708824,17.910136676875833,47.553814532203525,30.993451994699285,2847,1473.7898858246529,964.7989122529334,65.55704564839806,0.018563671474345324,0.012171179758033085,77.5625,74.6375,97.34,,
31.571965249999515,1573.5952133333233,,2.4177793619710664,18.019257325878918,47.58456570307927,30.31806321485758,2866,1442.6602940386726,983.7680372753255,68.20093895596482,0.018317833221278015,0.012492939017639705,77.5625,74.6375,97.3625,,
32.07479599999954,1580.287289999989,,2.4727640901070913,18.437071361611178,47.49970724891771,32.155451552777166,2903,1527.37112547287,1019.0747852192133,66.72393699922449,0.018091995131251065,0.012071800937838386,77.50625,74.6375,97.64375,,
32.57571449999931,1586.9820166666552,,2.5068254659594373,18.83040482711807,47.4680855876222,32.59753343382344,2922,1547.327771060221,1040.015337168857,67.223571233704,0.01810635767888399,0.012171989473080375,77.45,74.6375,97.925,,
33.06402049999955,1593.4795333333218,,2.550338297255858,19.111683556275757,47.3945170387435,34.15768208126395,2941,1618.8718444428855,1064.8165141287407,65.78556383584069,0.017948835363647435,0.011808209995552349,77.45,74.6375,97.95875,,
33.56972174999946,1599.2865033333292,,2.604090609712468,19.465746568528647,47.3247084869315,35.457351880187936,2963,1678.0038782808285,1095.551548762207,65.29342275482189,0.017768039198006735,0.011601307218122326,77.45,74.6375,98.2625,,
34.100635749999626,1600,,2.615215308443973,19.662163412843416,47.31781001786951,35.34901428529469,2969,1672.6348381254088,1102.4596166897475,65.91757404068252,0.017834880581530623,0.011756326542908698,77.45,74.6375,98.2625,,
34.62899549999954,1600,,2.612654010278957,19.64090290438568,47.31403402766335,35.349319328824556,2967,1672.517116445153,1100.766787168317,65.81798270389518,0.017843032649686095,0.01174382024109763,77.45,74.6375,98.5325,,
35.15118749999916,1600,,2.604955566887349,19.66581080460039,47.30444370485306,35.45805839273658,2967,1677.3208351551134,1097.2917334241392,65.42272118531727,0.017922176806267787,0.011725157618886654,77.45,74.6375,98.6,,
35.69558599999948,1600,,2.5985573297954305,19.702533957938762,47.304838535082794,35.368836460657306,2964,1673.1160216261972,1093.6099160089632,65.36512587571073,0.018016045653596647,0.011776254543150377,77.45,74.69375,98.65625,,
36.246915749999516,1600,,2.5962990451309675,19.57978849732976,47.300568333437,35.44270627335417,2965,1676.4569559442039,1093.0471454867327,65.20409335552175,0.017913160175327007,0.011680050515423307,77.45,74.75,98.7125,,
36.79025474999939,1600,,2.581059870079354,19.55401059921188,47.30790625769181,35.21283252667035,2968,1665.843887063615,1087.6525468873288,65.29338934205475,0.01797840089958766,0.011738567257143956,77.489375,74.75,98.94875,,
37.30165974999927,1600,,2.5875913054674964,19.651730119438206,47.293026462003844,35.552592249879595,2964,1681.3861669547719,1088.995236678771,64.7728322314338,0.0180458005306335,0.011688717960793654,77.5625,74.75,99.3875,,
37.80928324999958,1600,,2.5789763766574674,19.530280560082275,47.3001552249787,35.29804126675189,2962,1669.600939420808,1084.6337689998095,64.96608163758302,0.018006399129153243,0.011698082802610872,77.5625,74.75,99.3875,,
38.35739599999944,1600,,2.570169942859694,19.353561658653206,47.29776653982413,35.3741462728218,2964,1673.1158115635571,1081.5058020315041,64.64242253641275,0.017895029067535314,0.011567873518572155,77.5625,74.75,100.2875,,
38.900784249999376,1600,,2.5653575491083163,19.06175674225885,47.31454996589909,34.91741659001967,2968,1652.0939828150633,1081.195155585107,65.45493707866407,0.01763025565806993,0.011539762034323057,77.5625,74.75,100.2875,,
39.402560999999295,1600,,2.560127101919938,19.322823520277595,47.30125500107785,35.28692640332709,2961,1669.1103733432653,1076.3086909924332,64.49039921522362,0.017953181888929012,0.011578683309618627,77.5625,74.75,100.76,,
39.92860174999917,1600,,2.5538283321377224,19.44275539788844,47.321721873676424,34.69265661977285,2956,1641.7103907334572,1071.7292037119346,65.2894748370384,0.01814148585028405,0.011844405672395576,77.5625,74.75,100.9625,,
40.44132649999922,1600,,2.5725744559441113,19.424928222303887,47.30050122060191,35.21903789542482,2951,1665.8753541066258,1078.0371127880085,64.71624189892091,0.018018933496276847,0.011661236477587187,77.6075,74.75,101.1875,,
40.980325249999204,1600,,2.5809832946806046,19.339566905464785,47.29894507810509,35.19783243707242,2945,1664.818012555786,1079.0595966788837,64.81872375471431,0.01792262293954972,0.011617344925769229,77.675,74.75,101.525,,
41.49609099999937,1600,,2.580007484339716,19.21722778219816,47.295603037208835,35.263384854679956,2950,1667.7989763439205,1080.7972099156643,64.81082184732301,0.017780881400605388,0.011523498052754965,77.68625,74.75,101.57,,
42.00080374999904,1600,,2.5642511266121413,19.266899144279805,47.30517540909661,35.06537635364906,2951,1658.768647000147,1074.2108285165518,64.7670938815212,0.017935876633987744,0.011616449502711458,77.7875,74.75,101.975,,
