Time (s),ESC (µs),Torque (lbf·ft),Thrust (lbf),Voltage (V),Current (A),Motor Optical Speed (rad/s),Electrical Power (W),Mechanical Power (W),Motor Efficiency (%),Propeller Mech. Efficiency (lbf/W),Overall Efficiency (lbf/W),4LHE Temp (ºF)
0,1000,0.000157916,0.074853991,22.25757451,0.090739494,0,2.019641054,0,0,0,0,70.925
1.00903,1000,0.000412492,0.076629634,22.25698886,0.09432852,0,2.099468813,0,0,0,0,70.925
2.012765,1000,0.000325646,0.076039714,22.25762261,0.08926816,0,1.986897013,0,0,0,0,70.925
3.011775,1000,0.000376902,0.075491155,22.25764872,0.091637907,0,2.039644351,0,0,0,0,70.925
4.010115,1000,0.000465405,0.076164437,22.25769971,0.088342753,0,1.966306473,0,0,0,0,70.925
5.00888,1000,0.000512459,0.07546617,22.25759334,0.091092771,0,2.027505846,0,0,0,0,70.925
5.20562,1010.7916,0.000420746,0.075865928,22.2575929,0.091228589,0,2.030528791,0,0,0,0,70.925
5.4196,1023.7252,0.000428064,0.076431957,22.25757631,0.092012289,0,2.047970536,0,0,0,0,70.925
5.6078,1035.1942,0.000525789,0.076226447,22.25765856,0.094659729,0,2.106903919,0,0,0,0,70.925
5.82091,1047.7048,0.000463123,0.075766892,22.25773651,0.091493221,0,2.036431995,0,0,0,0,70.925
5.999535,1057.7875,0.000229557,0.075986095,22.23405465,0.254940084,0,5.668351757,0,0,0,0,70.925
6.21696,1071.5545,0.046011324,0.088995594,22.1875303,0.578237639,0.104719755,12.82966514,0.0050141,0.039082082,0,0.006936704,70.925
6.413185,1083.3184,0.040117596,0.111193336,22.19101832,0.551555647,78.22565707,12.23958147,4.252137012,34.74086939,0.026149989,0.009084733,70.925
6.602685,1094.6818,0.036181601,0.142279677,22.18170734,0.617277589,108.9085453,13.69227083,5.34514566,39.03768577,0.026618484,0.01039124,70.925
6.812275,1107.2671,0.035286666,0.18433422,22.16762064,0.715866451,134.1460063,15.86905591,6.417919668,40.44298353,0.028721802,0.011615954,70.925
7.005025,1118.8222,0.03655238,0.231072753,22.15353984,0.811299621,156.4513141,17.97315848,7.752548062,43.13403275,0.029806039,0.012856547,70.925
7.221805,1131.9079,0.038483019,0.288447607,22.1373668,0.928508789,178.6519022,20.55473964,9.32305971,45.35722599,0.030939157,0.014033143,70.925
7.42009,1143.7762,0.040685342,0.342452537,22.12288988,1.030219208,196.6637001,22.79142609,10.84931312,47.60260755,0.031564444,0.015025498,70.925
7.61254,1155.3115,0.0429197,0.399415789,22.1082467,1.132140678,213.1047017,25.0296454,12.40033992,49.54261127,0.032210068,0.015957709,70.925
7.803,1166.7217,0.04587357,0.457124904,22.08955637,1.264244585,227.1371489,27.92660203,14.12857481,50.5918149,0.032354637,0.016368798,70.925
8.01586,1179.4387,0.049586402,0.522731823,22.07089985,1.395726006,243.5781504,30.80492889,16.37593208,53.16010351,0.031920737,0.016969097,70.925
8.205695,1190.9326,0.052673573,0.582480844,22.05312348,1.517973955,255.725642,33.47606707,18.26413485,54.55878317,0.031892058,0.017399919,70.925
8.4246,1203.9844,0.056864733,0.649677716,22.02847284,1.692849379,269.6533694,37.29088657,20.79034759,55.75181901,0.031249007,0.01742189,70.925
8.617705,1215.565,0.060475955,0.712415849,22.0090891,1.832571706,281.6961413,40.33323394,23.09970752,57.27214325,0.030840903,0.017663246,70.925
8.814655,1227.2536,0.064528864,0.772100583,21.98628762,1.991094151,293.2153143,43.77676869,25.6527483,58.59899913,0.030098162,0.017637222,70.925
9.013695,1239.2536,0.068568629,0.836045105,21.96423888,2.147482549,304.7344874,47.16781971,28.32727343,60.05635537,0.029513787,0.017724905,70.925
9.20902,1251.2803,0.07252382,0.8985591,21.93788648,2.336728328,314.8923036,51.2628808,30.9616801,60.39785438,0.029021652,0.017528455,70.925
9.412365,1263.2299,0.076473314,0.961667672,21.91483229,2.500712479,325.6784384,54.80269458,33.76370953,61.60957921,0.028482287,0.017547817,70.925
9.60989,1274.8699,0.080075587,1.024788176,21.88932746,2.683317506,335.7315349,58.73601557,36.45349424,62.06327394,0.028112207,0.017447356,70.8125
9.803425,1286.7307,0.083539811,1.086655281,21.86864016,2.827688823,345.3657524,61.83770934,39.1150252,63.25432429,0.02778102,0.017572696,70.8125
10.003535,1298.4238,0.087406897,1.150047491,21.84154479,3.017218045,355.3141291,65.90070308,42.11049308,63.89991475,0.027310236,0.017451217,70.8125
10.215775,1311.4807,0.089972598,1.213246892,21.61778578,3.168412141,364.1105886,68.49405492,44.41025715,64.83811945,0.027319069,0.017713171,70.8125
10.40868,1323.2038,0.088611808,1.251537969,20.96939987,3.210062612,366.6238627,67.3130865,44.04698383,65.43598893,0.028413704,0.018592788,70.8125
10.600985,1334.7421,0.085382571,1.2613966,20.17038669,3.223710984,365.5766651,65.02349712,42.31499689,65.07647045,0.029809682,0.019399089,70.7
10.81207,1347.2821,0.08216604,1.254294717,19.29626818,3.228103412,362.5397922,62.29034914,40.38605455,64.83517127,0.03105762,0.020136261,70.7
11.00355,1358.6644,0.079787371,1.235150052,18.49838331,3.230386217,359.0840403,59.75692249,38.84825754,65.0104723,0.03179422,0.020669573,70.7
11.21644,1371.5434,0.077355503,1.205288153,17.63979098,3.231051826,354.4763711,56.99507886,37.17538424,65.22560366,0.032421673,0.021147232,70.7
11.40852,1383.2413,0.075428354,1.179191713,16.90857508,3.227723544,350.1828611,54.57620587,35.81416243,65.62230162,0.032925291,0.021606334,70.7
11.603435,1394.6779,0.073685702,1.152837776,16.28265651,3.226259122,345.8893512,52.53206909,34.55816252,65.78488744,0.033359348,0.02194541,70.7
11.801035,1406.5474,0.071829381,1.124812059,15.66231,3.2262046,341.700561,50.52981656,33.27638125,65.85494172,0.033802115,0.022260363,70.7
12.014765,1419.2998,0.069829339,1.091847053,15.0277953,3.230184569,337.1976115,48.54255249,31.92383762,65.76464562,0.034201623,0.022492576,70.7
12.20225,1430.8615,0.068108397,1.068155952,14.48205862,3.22647855,333.4277003,46.72605149,30.790899,65.89664226,0.034690639,0.022859966,70.7
12.41496,1443.4759,0.066161599,1.039251644,13.95357187,3.228963007,329.4483496,45.05556739,29.54825092,65.58179739,0.035171342,0.023065998,70.7
12.61259,1455.2725,0.064635573,1.016620057,13.4791953,3.228688666,325.5737187,43.52012509,28.53365023,65.56426521,0.035628812,0.023359769,70.7
12.80713,1466.8675,0.063326424,0.995455722,13.04088571,3.224357008,322.1179667,42.04847122,27.65498231,65.76929317,0.035995529,0.023674005,70.7
13.023865,1479.8845,0.062120636,0.975122259,12.59185067,3.224470933,318.4527753,40.60205647,26.81797202,66.05077267,0.036360775,0.024016573,70.7
13.21613,1491.5653,0.061435929,0.954364155,12.21486839,3.223299208,314.8923036,39.3721756,26.23152527,66.62452576,0.036382336,0.024239559,70.7
13.406065,1502.95,0.060361026,0.934244534,11.86261794,3.222197666,311.750711,38.22369985,25.50963944,66.73775573,0.036623196,0.024441499,70.7
13.61828,1515.6181,0.059422101,0.912325798,11.48602764,3.223477961,308.2949591,37.02495695,24.84100969,67.09260923,0.036726599,0.024640833,70.7
13.813205,1527.3922,0.058190021,0.895737259,11.16430928,3.227657211,305.5722454,36.03456334,24.10567894,66.89599292,0.037158765,0.024857725,70.7
14.00808,1539.0943,0.057404518,0.882232862,10.86891832,3.227728696,302.6400923,35.08191955,23.55347815,67.13851025,0.037456585,0.025147793,70.5875
14.202705,1550.5687,0.056549862,0.867332385,10.58053831,3.226306158,299.9173787,34.1360559,22.99905329,67.37466496,0.037711656,0.025408102,70.5875
14.414385,1563.3901,0.055612257,0.850039859,10.30089984,3.226824843,297.4041045,33.23919952,22.42172787,67.45567941,0.037911434,0.025573415,70.5875
14.605065,1574.8051,0.055037845,0.835243287,10.0496921,3.22259177,294.9955502,32.38605506,22.01591513,67.97961371,0.037938159,0.025790214,70.5875
14.8196,1587.6463,0.054282906,0.817855395,9.773123944,3.225830874,292.3775563,31.52644496,21.51705306,68.25080686,0.038009638,0.025941885,70.5875
15.012905,1599.2497,0.053081736,0.802390407,9.54025187,3.225773383,290.1784414,30.77469055,20.88516317,67.8647382,0.038419159,0.026073062,70.5875
15.163935,1600,0.052005051,0.794443544,9.377400841,3.226638598,288.2934858,30.2574835,20.33065783,67.19216366,0.039076136,0.026256101,70.5875
15.33048,1600,0.051784729,0.784159197,9.273076948,3.225806249,286.7226895,29.91314956,20.12853835,67.28993316,0.038957583,0.026214531,70.5875
15.49939,1600,0.052247946,0.777430514,9.332958942,3.224133325,285.9896512,30.09070395,20.26164537,67.33523217,0.038369565,0.025836236,70.5875
15.641205,1600,0.052965501,0.773086964,9.465213874,3.224473355,286.4085303,30.52032994,20.56499767,67.38130849,0.037592368,0.02533023,70.5875
15.81215,1600,0.053585509,0.771703723,9.663094686,3.224934031,287.4557278,31.1628429,20.8810143,67.00612769,0.036957195,0.024763585,70.5875
15.98224,1600,0.054794749,0.776032808,9.906577333,3.223508875,288.9218044,31.93393995,21.46505986,67.2170734,0.036153303,0.024301192,70.5875
16.129825,1600,0.055629852,0.781489347,10.13711283,3.221937104,290.4926007,32.66113997,21.90947572,67.08117274,0.035669012,0.023927191,70.5875
16.300245,1600,0.056952926,0.792690645,10.40820579,3.226157321,292.4822761,33.5785093,22.58345798,67.25568959,0.035100499,0.023607083,70.5875
16.44166,1600,0.057492874,0.802650184,10.66510202,3.227331852,294.2625119,34.41982347,22.94150874,66.65202326,0.034986809,0.023319416,70.5875
16.61346,1600,0.058340868,0.815235135,10.97374364,3.227409483,296.5663465,35.41676428,23.45983469,66.23935066,0.034750251,0.02301834,70.5875
16.77788,1600,0.059862858,0.828285113,11.27541992,3.225090138,299.0796206,36.36424558,24.27241651,66.74802714,0.034124543,0.022777459,70.5875
16.921125,1600,0.061116714,0.840706569,11.58476389,3.222101263,301.3834552,37.32728235,24.97208836,66.90036561,0.03366585,0.022522576,70.5875
17.09375,1600,0.062513889,0.852962908,11.96457511,3.220804485,304.2108886,38.53555719,25.78510223,66.91249358,0.033079679,0.022134438,70.5875
17.26093,1600,0.063884348,0.868481736,12.3488169,3.223517234,307.1430418,39.8066241,26.60222325,66.82863429,0.032646961,0.021817518,70.475
17.406475,1600,0.064986187,0.882297032,12.74005471,3.222276391,310.0751949,41.05197752,27.31596023,66.53993762,0.032299689,0.021492193,70.475
17.57293,1600,0.066643719,0.902017464,13.18460816,3.224496488,313.4262271,42.5137227,28.31902821,66.61149956,0.031851992,0.02121709,70.475
17.73559,1600,0.068098184,0.919296003,13.6683242,3.222532746,316.7772592,44.04662233,29.24907275,66.40480293,0.03142992,0.020870976,70.475
17.88097,1600,0.069428317,0.938474443,14.1599337,3.222084767,319.7094124,45.62450667,30.09259291,65.95708119,0.031186227,0.020569525,70.475
18.04581,1600,0.071045718,0.95915195,14.73630912,3.223216781,323.7934828,47.49831886,31.19115405,65.66791162,0.030750768,0.020193387,70.475
18.21628,1600,0.07298139,0.983985993,15.36227034,3.223132289,327.8775533,49.51462956,32.43822841,65.5124126,0.030334147,0.019872632,70.475
18.363375,1600,0.074740608,1.005634297,15.98965598,3.220003667,331.5427447,51.4867509,33.59699583,65.25367254,0.029932268,0.019531904,70.475
18.53374,1600,0.077119705,1.032874576,16.72202435,3.221687358,336.4645732,53.87313446,35.18121119,65.30381338,0.029358699,0.01917235,70.475
18.697245,1600,0.079545049,1.0615073,17.47502807,3.221212768,341.5958412,56.29078355,36.84605124,65.45663236,0.028809255,0.018857568,70.475
18.86322,1600,0.081744576,1.090101046,18.2072772,3.225047987,346.4129499,58.71934267,38.3874304,65.3744212,0.028397343,0.018564599,70.475
19.011495,1600,0.082423917,1.115489376,18.52095134,3.222003788,349.7639821,59.67457536,39.09254717,65.50955232,0.028534579,0.018692875,70.475
19.170525,1600,0.082673379,1.137837059,18.71502381,3.223984468,352.1725365,60.3369461,39.47905765,65.43098417,0.028821282,0.018858049,70.475
19.3426,1600,0.082538563,1.153585229,18.81053464,3.227590953,353.9527723,60.71271142,39.60937376,65.2406602,0.029124046,0.01900072,70.475
19.489715,1600,0.082492121,1.16115184,18.86235826,3.223726384,354.9999699,60.80708197,39.70098661,65.29007038,0.02924743,0.019095668,70.475
19.66488,1600,0.082263346,1.168898762,18.88960375,3.223259418,355.6282884,60.8860932,39.66093747,65.139567,0.029472293,0.019198124,70.475
19.80583,1600,0.082191945,1.174602454,18.93072743,3.224448481,355.9424477,61.04115531,39.6625078,64.97666632,0.029614932,0.019242795,70.475
19.972105,1600,0.082112379,1.180056189,18.93994375,3.224503807,356.2566069,61.07192073,39.66668077,64.95076673,0.029749305,0.019322402,70.475
20.13917,1600,0.081791212,1.179143366,18.95407372,3.22216668,356.4660464,61.07318479,39.52558125,64.7183889,0.029832411,0.019307055,70.475
20.28435,1600,0.081649543,1.178777001,18.95024112,3.220956949,356.6754859,61.03791082,39.48829523,64.69470317,0.029851301,0.019312211,70.475
20.45635,1600,0.081447858,1.177911665,18.97184517,3.222732674,356.9896452,61.14118531,39.41769775,64.46996006,0.029882812,0.019265437,70.475
20.603535,1600,0.081350645,1.176699537,18.98514501,3.221675314,357.1990847,61.16397301,39.39327079,64.40600381,0.029870572,0.019238442,70.475
20.766495,1600,0.08137613,1.177417972,18.98802072,3.22075471,357.3038045,61.15575719,39.42268553,64.46275435,0.029866508,0.019252774,70.475
20.922015,1600,0.081104232,1.180408796,18.97882871,3.222319046,357.4085242,61.15584123,39.30650298,64.27268792,0.030030878,0.019301653,70.475
21.09003,1600,0.081032642,1.181245676,18.97761267,3.223301936,357.4085242,61.17057565,39.27207026,64.20091659,0.030078518,0.019310684,70.475
21.259805,1600,0.080921475,1.182743882,18.99728169,3.222818076,357.513244,61.22478281,39.22863421,64.07312922,0.030150014,0.019318058,70.475
21.407475,1600,0.081166137,1.182427536,18.99810157,3.223882577,357.6179637,61.24764867,39.35529537,64.25601019,0.030044941,0.01930568,70.475
21.58296,1600,0.081136496,1.181501521,19.01016208,3.221528574,357.8274032,61.24178034,39.3644313,64.27708515,0.030014444,0.01929241,70.475
21.727625,1600,0.081254706,1.179864362,18.98872595,3.21876525,357.932123,61.12025121,39.43124987,64.51421434,0.029922063,0.019303984,70.475
21.89334,1600,0.081302694,1.17907302,18.96389601,3.217172436,357.932123,61.01012354,39.45595741,64.6711646,0.02988327,0.019325859,70.475
22.06758,1600,0.081140557,1.178369366,18.95853596,3.218300346,358.0368428,61.01426284,39.39203121,64.56200464,0.029913902,0.019313015,70.475
22.21041,1600,0.081177283,1.178368156,18.92403812,3.220113032,358.2462823,60.93754178,39.42379524,64.6954145,0.02988977,0.01933731,70.475
22.37659,1600,0.081232532,1.175997563,18.95961253,3.218010812,358.4557218,61.0122381,39.48114095,64.71019943,0.029786312,0.019274782,70.475
22.543865,1600,0.081254633,1.175189603,18.98800793,3.22345225,358.8746008,61.20693689,39.53490393,64.59219484,0.029725369,0.019200268,70.475
22.688735,1600,0.081156184,1.175148594,18.97789437,3.223192265,358.9793206,61.16940235,39.49940994,64.57380393,0.029751042,0.019211379,70.3625
22.85411,1600,0.081311476,1.175505573,19.00544473,3.223556536,358.9793206,61.26512557,39.57910705,64.6029967,0.029700154,0.019187189,70.3625
23.01911,1600,0.081456464,1.174728373,19.03001675,3.221133976,359.0840403,61.29823353,39.66127093,64.70214335,0.02961903,0.019164147,70.3625
23.16283,1600,0.081393787,1.172075533,18.99274809,3.222677844,359.0840403,61.20750845,39.63126696,64.74902829,0.029574516,0.019149212,70.3625
23.327355,1600,0.081307145,1.173100139,19.00004956,3.224544812,359.0840403,61.26651123,39.58793414,64.61594327,0.02963277,0.019147494,70.3625
23.494435,1600,0.081413155,1.173201543,19.00237192,3.222511166,359.3981996,61.2353557,39.67300144,64.78773739,0.029571787,0.019158892,70.3625
23.64355,1600,0.081749084,1.17635932,18.99428649,3.220598184,359.3981996,61.17296457,39.840273,65.12725562,0.029526889,0.019230053,70.3625
23.81345,1600,0.081805592,1.177305008,19.04912191,3.224373122,359.5029193,61.42147669,39.86841392,64.90956595,0.029529768,0.019167644,70.3625
23.98385,1600,0.081815625,1.178852238,19.02361848,3.225390921,359.6076391,61.35860634,39.88602294,65.00477329,0.029555522,0.0192125,70.3625
24.12712,1600,0.081562757,1.178230794,19.05327967,3.224570297,359.5029193,61.43863967,39.75508462,64.70697404,0.029637235,0.019177358,70.3625
24.302365,1600,0.081699209,1.180173341,19.05777078,3.221930206,359.2934798,61.40280734,39.79595699,64.81129888,0.029655609,0.019220185,70.3625
24.443425,1600,0.081705421,1.180442505,19.01709596,3.220942938,359.0840403,61.25298095,39.7783836,64.94113917,0.029675477,0.019271593,70.3625
24.616415,1600,0.081876809,1.178579851,19.00814227,3.223561485,358.9793206,61.27391533,39.85564112,65.04503736,0.029571218,0.01923461,70.3625
24.76479,1600,0.081878877,1.182023171,18.98089157,3.223348339,358.9793206,61.18202533,39.8478093,65.12992842,0.029663442,0.019319778,70.3625
24.9396,1600,0.081898261,1.184393691,19.01571946,3.225394293,358.769881,61.333193,39.84214797,64.96017249,0.029727155,0.019310811,70.3625
25.08262,1600,0.081987389,1.184443597,18.99398965,3.225862642,358.6651613,61.27200164,39.87220606,65.07410398,0.029705996,0.019330911,70.3625
25.247655,1600,0.082077754,1.183611579,18.99138194,3.226669039,358.5604415,61.27890412,39.89584474,65.10534957,0.02966754,0.019315156,70.3625
25.416385,1600,0.081898582,1.183495047,18.96508539,3.224906826,358.351002,61.16063334,39.79211652,65.06164888,0.029741948,0.019350602,70.3625
25.56188,1600,0.081981959,1.18049932,18.98199971,3.224906185,358.351002,61.21516826,39.82704521,65.06074612,0.029640645,0.019284425,70.3625
25.733165,1600,0.082117407,1.181630165,18.99495173,3.225758189,358.4557218,61.27312111,39.9141722,65.14140536,0.029604276,0.019284641,70.3625
25.88114,1600,0.082230419,1.181095105,18.97559219,3.22326234,358.5604415,61.16331166,39.9769931,65.36106698,0.029544371,0.019310516,70.3625
26.050205,1600,0.082184315,1.181331033,18.98141636,3.223831556,358.5604415,61.19288904,39.94902575,65.28377132,0.02957096,0.019305038,70.3625
26.21798,1600,0.082119425,1.181740153,19.02342008,3.226541352,358.5604415,61.37985153,39.91990292,65.03747064,0.029602781,0.0192529,70.3625
26.36671,1600,0.081983678,1.182167996,19.01936353,3.225901007,358.6651613,61.35458396,39.87068516,64.98403638,0.029650055,0.019267802,70.3625
26.532625,1600,0.082038084,1.184424744,18.99044842,3.223784558,358.769881,61.22111438,39.90477134,65.18138675,0.029681281,0.019346671,70.3625
26.70014,1600,0.082073146,1.184664042,18.97441951,3.224468066,358.6651613,61.1824098,39.91607336,65.24109379,0.029678872,0.019362821,70.3625
26.842765,1600,0.082038305,1.18581041,18.98205973,3.22399498,358.769881,61.1980653,39.9046329,65.20570986,0.029716109,0.0193766,70.3625
27.01375,1600,0.081917084,1.182326994,19.00722262,3.221850482,358.8746008,61.23842935,39.85645395,65.08405648,0.029664631,0.019306945,70.3625
27.20633,1589.1088,0.081971514,1.179886638,18.98919898,3.219811678,358.8746008,61.14164465,39.88524311,65.23416787,0.029582035,0.019297594,70.3625
27.419005,1576.324,0.082242354,1.180534454,19.00856017,3.226172,358.8746008,61.32488458,40.01223983,65.24633533,0.029504333,0.019250496,70.3625
27.61015,1564.8646,0.082374262,1.184886377,19.02567137,3.221509272,358.5604415,61.29137671,40.04241606,65.33123941,0.029590781,0.019332024,70.3625
27.8048,1553.1499,0.082783682,1.193164804,18.99647848,3.219998793,358.2462823,61.16863779,40.20688034,65.73120114,0.029675637,0.019506153,70.3625
28.023315,1540.114,0.083415329,1.189050674,18.98898763,3.217104281,358.2462823,61.08955341,40.52023895,66.32924402,0.029344612,0.019464059,70.3625
28.21324,1528.6792,0.083648245,1.18992712,18.99661866,3.221699549,358.2462823,61.20139775,40.63019087,66.38768453,0.029286772,0.01944281,70.3625
28.406895,1517.032,0.083280172,1.191898978,18.98475793,3.219649839,358.1415625,61.12427281,40.43455685,66.15139123,0.029477236,0.019499602,70.3625
28.619285,1504.3228,0.082842094,1.193081451,18.95215524,3.220401428,358.0368428,61.0335478,40.2154308,65.89069823,0.029667255,0.019547962,70.3625
28.81333,1492.6078,0.082538613,1.184595692,18.97787466,3.222345484,358.1415625,61.15326871,40.07550495,65.53289104,0.029559096,0.01937093,70.3625
29.024625,1480.0471,0.082442411,1.18514535,18.96950627,3.221188726,358.2462823,61.10435973,40.04594542,65.5369692,0.02959464,0.01939543,70.3625
29.21801,1468.4296,0.082255458,1.185315124,18.98363245,3.225039278,358.1415625,61.22296027,39.94218631,65.24053415,0.02967577,0.019360631,70.3625
