Time (s),ESC (µs),Servo (µs),Torque (lbf·ft),Thrust (lbf),Voltage (V),Current (A),Motor Optical Speed (rad/s),Electrical Power (W),Mechanical Power (W),Motor Efficiency (%),Propeller Mech. Efficiency (lbf/W),Overall Efficiency (lbf/W),4LHE Temp (ºF),App message,
0,1000,,0.0001579155879001844,0.07485399145802421,22.25757451433012,0.09073949423770053,0,2.019641054388248,0,0,0,0,70.925,,
1.0090299999993295,1000,,0.0004124916282046186,0.07662963437183526,22.25698886375543,0.09432851971479622,0,2.0994688128267542,0,0,0,0,70.925,,
2.0127649999996646,1000,,0.0003256461223319198,0.07603971437925033,22.257622609296863,0.08926815986485209,0,1.9868970132982589,0,0,0,0,70.925,,
3.011774999999907,1000,,0.000376901890356217,0.0754911550075379,22.257648720584488,0.09163790734925559,0,2.0396443512691986,0,0,0,0,70.925,,
4.010114999999758,1000,,0.00046540499001672126,0.07616443744140088,22.25769971407945,0.08834275321795068,0,1.9663064730401723,0,0,0,0,70.925,,
5.008879999999422,1000,,0.0005124591206630551,0.07546617028170478,22.257593343420275,0.09109277067201305,0,2.0275058461431072,0,0,0,0,70.925,,
5.205619999999646,1010.7915999999922,,0.0004207459294879287,0.07586592845929413,22.25759289962626,0.09122858884501442,0,2.0305287913197163,0,0,0,0,70.925,,
5.419599999999628,1023.7252000000235,,0.0004280642087510123,0.07643195721372148,22.25757630775282,0.09201228865811006,0,2.0479705360588643,0,0,0,0,70.925,,
5.607799999999348,1035.1942000000179,,0.0005257890052031348,0.07622644681932031,22.257658563794504,0.09465972862318858,0,2.1069039194363772,0,0,0,0,70.925,,
5.820909999999683,1047.7048000000045,,0.0004631226724016807,0.07576689175159228,22.257736514156388,0.09149322052489195,0,2.03643199527465,0,0,0,0,70.925,,
5.999534999999684,1057.7875,,0.00022955660365841385,0.07598609507161631,22.23405464524465,0.2549400838987244,0,5.668351756667494,0,0,0,0,70.925,,
6.216959999999497,1071.5544999999831,,0.0460113236819344,0.08899559425810424,22.18753030284245,0.5782376392192463,0.10471975512,12.829665142421108,0.005014100295838369,0.03908208234725719,0,0.00693670436992479,70.925,,
6.41318499999959,1083.3184000000078,,0.040117595675366866,0.11119333573822432,22.19101832178089,0.5515556470161143,78.22565707464,12.239581468416306,4.25213701164591,34.74086938853555,0.02614998891937957,0.009084733495598175,70.925,,
6.60268499999959,1094.6817999999878,,0.036181600791379935,0.14227967664195768,22.181707342468734,0.6172775890109133,108.90854532479999,13.692270828504773,5.345145660351661,39.03768576665937,0.02661848444979458,0.010391240315357896,70.925,,
6.812274999999441,1107.267099999981,,0.03528666559313002,0.18433421979133804,22.16762064195937,0.7158664508235657,134.14600630872,15.869055912162668,6.417919668465621,40.44298352712133,0.028721802283855662,0.011615953766352103,70.925,,
7.005024999999907,1118.8222000000067,,0.03655238010032028,0.231072753248778,22.153539843161372,0.8112996208624863,156.45131414928,17.973158475518805,7.752548062436985,43.13403274664668,0.029806039432168464,0.012856546809149967,70.925,,
7.221804999999236,1131.907900000019,,0.038483018864870565,0.28844760687937754,22.137366801185458,0.9285087890341579,178.65190223471998,20.55473964097368,9.323059710147993,45.357225987739916,0.030939156869864,0.014033143300165574,70.925,,
7.420089999999851,1143.7762000000012,,0.040685342224622285,0.34245253714242446,22.12288987579393,1.0302192083711967,196.66370011536,22.791426094723587,10.84931311855769,47.60260754841226,0.03156444407127132,0.015025498436085366,70.925,,
7.612540000000037,1155.3114999999943,,0.042919699984049486,0.3994157888192964,22.108246698228687,1.1321406777567165,213.10470166919998,25.029645400945313,12.400339923916409,49.5426112726634,0.032210067729590806,0.01595770864593277,70.925,,
7.8029999999995345,1166.72169999999,,0.0458735696429419,0.4571249036202075,22.089556371652755,1.2642445850881185,227.13714885527997,27.926602029860742,14.128574807727606,50.59181490329727,0.032354636602849964,0.01636879786274832,70.925,,
8.01585999999987,1179.438700000001,,0.04958640190810018,0.5227318225469056,22.070899846278518,1.3957260057372012,243.57815040911998,30.804928885472123,16.37593208267586,53.16010351317154,0.03192073708585449,0.01696909687700758,70.925,,
8.205694999999366,1190.9326000000258,,0.05267357302439717,0.5824808435085723,22.05312347610404,1.5179739552219778,255.72564200303998,33.4760670680203,18.264134846465506,54.55878317292906,0.03189205776266455,0.01739991864411744,70.925,,
8.424599999999627,1203.9844000000135,,0.056864733130839944,0.6496777162143201,22.028472843458673,1.6928493788934886,269.65336943399996,37.2908865710211,20.79034758759027,55.75181900809656,0.031249006947921924,0.01742188979543295,70.925,,
8.617704999999608,1215.565,,0.06047595486983196,0.7124158487765603,22.00908909532624,1.8325717057187858,281.6961412728,40.33323394473874,23.099707520796287,57.27214324654848,0.030840903424217993,0.017663246387647807,70.925,,
8.814654999999329,1227.2536000000034,,0.06452886363929722,0.7721005825121666,21.98628761887652,1.9910941512537625,293.215314336,43.77676868572805,25.652748302363502,58.598999132447894,0.030098162325984758,0.017637221880286567,70.925,,
9.013694999999831,1239.2536000000034,,0.06856862862126557,0.8360451051507565,21.964238884256666,2.1474825493823455,304.73448739919996,47.16781971440635,28.327273427126173,60.05635536822205,0.029513786679877224,0.01772490461108605,70.925,,
9.209019999999553,1251.2802999999933,,0.07252381954377399,0.8985590999489267,21.93788648173625,2.336728328171294,314.89230364584,51.26288080207918,30.961680099558535,60.39785438336652,0.029021651830894626,0.017528455012471363,70.925,,
9.412364999999292,1263.2299000000023,,0.07647331392402906,0.961667672060441,21.914832293042135,2.5007124786785013,325.67843842319996,54.80269458335706,33.76370952976892,61.609579212228304,0.028482287208772314,0.017547817299342947,70.925,,
9.609889999999664,1274.8699000000022,,0.08007558726642815,1.0247881755151615,21.889327462175203,2.6833175059177328,335.73153491472,58.7360155720205,36.453494243568976,62.06327393602431,0.02811220698536882,0.01744735603079161,70.8125,,
9.803424999999814,1286.7307000000123,,0.08353981086532598,1.086655280515309,21.868640158613267,2.827688822729853,345.36575238576,61.837709344811934,39.11502520113558,63.25432428783402,0.027781019567993562,0.017572696208005275,70.8125,,
10.003534999999683,1298.423799999999,,0.08740689724082798,1.1500474909486935,21.84154478965626,3.0172180452965702,355.31412912215995,65.90070307650416,42.110493084818415,63.89991474890992,0.0273102356847801,0.01745121732030086,70.8125,,
10.215774999999441,1311.4807000000123,,0.08997259833171388,1.2132468917795602,21.61778577574091,3.1684121413343695,364.11058855223996,68.49405492062293,44.410257146405954,64.83811945120281,0.02731906928122226,0.01771317077351574,70.8125,,
10.408679999999702,1323.2037999999989,,0.08861180814275073,1.2515379686189325,20.96939986513984,3.2100626119317677,366.62386267512,67.31308650173246,44.0469838344603,65.43598893407844,0.02841370417830489,0.01859278832187737,70.8125,,
10.60098499999987,1334.742100000009,,0.0853825705137531,1.261396599749363,20.17038668562723,3.223710984446065,365.57666512391995,65.02349711898115,42.31499688624117,65.07647044700231,0.029809681970212065,0.019399088877690433,70.7,,
10.812069999999832,1347.282100000009,,0.0821660396954543,1.2542947168151481,19.296268176342448,3.2281034118716843,362.53979222543995,62.29034913644206,40.386054547865896,64.83517127091943,0.031057619538659004,0.020136260820560106,70.7,,
11.003549999999814,1358.6644000000133,,0.07978737060087152,1.2351500524876737,18.49838331061124,3.2303862173476374,359.08404030648,59.756922489812105,38.84825754110864,65.01047229755153,0.03179422014438245,0.020669572679186298,70.7,,
11.216439999999478,1371.5434000000078,,0.07735550311995876,1.2052881534148008,17.6397909824589,3.2310518258080494,354.4763710812,56.9950788607462,37.17538424256657,65.22560365851182,0.03242167304984359,0.021147231962949525,70.7,,
11.408519999999553,1383.2412999999988,,0.07542835360447053,1.179191712732243,16.908575077344786,3.2277235439431866,350.18286112128,54.576205871676756,35.81416243248417,65.62230162480117,0.032925290796768494,0.021606333637498327,70.7,,
11.60343499999959,1394.677900000019,,0.07368570174742288,1.1528377758659965,16.282656511229224,3.2262591215402465,345.88935116135997,52.53206909225997,34.558162519823235,65.78488743538755,0.033359348177285364,0.021945409647606186,70.7,,
11.801034999999683,1406.5474000000022,,0.07182938084639817,1.1248120587647066,15.662309995646392,3.2262046002389813,341.70056095655997,50.52981655832337,33.27638124632024,65.85494172121409,0.03380211479242774,0.022260362997091176,70.7,,
12.014764999999665,1419.2998000000046,,0.06982933912219694,1.091847052751563,15.027795301496155,3.230184568755257,337.1976114864,48.542552485305634,31.923837616825224,65.76464561992063,0.03420162280790806,0.022492576035882686,70.7,,
12.202249999999534,1430.8615000000223,,0.06810839737863748,1.0681559519118402,14.48205861742958,3.2264785503414424,333.42770030208,46.72605149392398,30.79089899537895,65.89664226043762,0.03469063868749488,0.02285996607375947,70.7,,
12.414959999999963,1443.4759000000079,,0.0661615985551889,1.0392516436884676,13.953571870458248,3.2289630073151354,329.44834960751996,45.055567389622745,29.54825091914703,65.58179739170839,0.035171342172914906,0.023065998363785544,70.7,,
12.612589999999384,1455.2725,,0.06463557299554341,1.0166200568947845,13.479195301132144,3.228688665629469,325.57371866808,43.52012509057135,28.533650234411148,65.56426521070128,0.03562881189553365,0.023359768722609572,70.7,,
12.807129999999422,1466.8675,,0.06332642396983895,0.9954557218980227,13.040885709678513,3.2243570075738113,322.11796674912,42.04847122297109,27.6549823109562,65.7692931671872,0.03599552914932252,0.023674005093298256,70.7,,
13.023864999999292,1479.8844999999833,,0.06212063595683058,0.9751222588177499,12.591850666285133,3.224470932946719,318.45277531991997,40.60205646544219,26.81797201595178,66.05077267152092,0.03636077546198239,0.024016573141996147,70.7,,
13.216129999999422,1491.5652999999934,,0.06143592896583399,0.954364155473635,12.214868386542353,3.223299208115563,314.89230364584,39.37217559757779,26.23152527497692,66.6245257643083,0.03638233558549616,0.024239558545816005,70.7,,
13.406064999999478,1502.95,,0.06036102627639923,0.9342445342663372,11.862617943401432,3.2221976662989023,311.75071099224,38.223699853423575,25.50963943747356,66.7377557256241,0.036623196362937836,0.0244414993276131,70.7,,
13.618279999999329,1515.6181000000145,,0.059422100874505196,0.9123257979679158,11.48602764030947,3.2234779607341415,308.29495907328,37.024956954920754,24.841009688448295,67.09260923299152,0.036726598854480964,0.02464083345400525,70.7,,
13.81320499999961,1527.3922000000066,,0.05819002094336533,0.8957372594927147,11.164309276245424,3.227657210803485,305.57224544016,36.03456333911378,24.105678941516672,66.89599292396898,0.03715876502237846,0.02485772482000455,70.7,,
14.008079999999609,1539.0943000000157,,0.0574045182891393,0.8822328621698601,10.868918317702828,3.2277286958055504,302.6400922968,35.08191954641601,23.553478151532666,67.13851025275184,0.03745658524375737,0.025147793324210774,70.5875,,
14.20270499999961,1550.5687000000012,,0.056549862271833715,0.8673323853433023,10.580538309149626,3.2263061575353396,299.91737866368,34.136055896847985,22.999053292416868,67.37466496397589,0.03771165596756431,0.02540810186051368,70.5875,,
14.414384999999777,1563.3901000000258,,0.05561225710647946,0.8500398585151823,10.30089984435212,3.226824842724875,297.4041045408,33.23919952017622,22.421727865886098,67.45567940730972,0.03791143410533,0.025573415448804877,70.5875,,
14.60506499999948,1574.8050999999978,,0.05503784472702666,0.8352432871595129,10.049692103602712,3.2225917695751267,294.99555017304,32.38605505983424,22.015915126235097,67.9796137120128,0.03793815893504248,0.02579021389349135,70.5875,,
14.819599999999628,1587.6463000000267,,0.05428290607752022,0.8178553945587997,9.773123944329127,3.225830874378413,292.37755629504,31.52644495874383,21.517053058970983,68.25080686112453,0.038009637858740876,0.02594188452358211,70.5875,,
15.012904999999796,1599.2497000000067,,0.053081736402185276,0.8023904071950193,9.540251869571627,3.225773383374048,290.17844143752,30.77469055154865,20.88516317451037,67.86473819948576,0.03841915911743076,0.026073061753488246,70.5875,,
15.16393499999959,1600,,0.052005051244367266,0.7944435435794431,9.377400840550028,3.226638597667797,288.29348584536,30.25748349792116,20.33065783246914,67.19216366379563,0.0390761356629924,0.026256101028164662,70.5875,,
15.330479999999982,1600,,0.05178472925131157,0.7841591973193662,9.27307694817269,3.225806248534323,286.72268951856,29.913149562555052,20.12853834523511,67.2899331551225,0.03895758270520396,0.02621453136118331,70.5875,,
15.499389999999664,1600,,0.05224794597090243,0.7774305136076172,9.332958942067116,3.2241333253903632,285.98965123272,30.090703949618575,20.261645366256136,67.33523217064176,0.038369564739414226,0.025836235500149265,70.5875,,
15.641204999999609,1600,,0.05296550105662017,0.7730869643385082,9.465213873536289,3.2244733554255585,286.40853025319996,30.520329938622105,20.564997667463363,67.38130848788526,0.03759236819956647,0.025330229584451556,70.5875,,
15.812149999999441,1600,,0.053585509139268496,0.7717037228182416,9.663094686248108,3.2249340309254237,287.4557278044,31.162842897736155,20.881014304120324,67.0061276907353,0.036957195257797705,0.0247635854453543,70.5875,,
15.982239999999758,1600,,0.054794748999501174,0.7760328084005216,9.906577333189928,3.223508874988226,288.92180437608,31.933939954294924,21.465059859551616,67.21707340301019,0.03615330278500012,0.02430119207060605,70.5875,,
16.12982499999972,1600,,0.05562985202598867,0.7814893472590837,10.137112834859167,3.2219371044585,290.49260070288,32.66113997471524,21.909475724392475,67.08117273724612,0.035669011759556994,0.02392719139209706,70.5875,,
16.300244999999645,1600,,0.056952926326256474,0.7926906445597259,10.408205788444876,3.2261573207570575,292.48227605016,33.578509300337416,22.583457983280518,67.25568958790433,0.035100499008902365,0.023607082657232808,70.5875,,
16.441659999999683,1600,,0.057492873762352334,0.8026501844625795,10.665102023598758,3.227331852082974,294.2625118872,34.41982346647485,22.941508744577238,66.65202326479806,0.034986808993209946,0.02331941606976475,70.5875,,
16.613459999999964,1600,,0.05834086849261913,0.8152351347964919,10.97374363800302,3.227409483121697,296.56634649984,35.41676428263734,23.45983468681996,66.23935066343955,0.03475025061683413,0.023018340362508823,70.5875,,
16.77787999999989,1600,,0.059862857552107004,0.8282851132708784,11.27541991894667,3.22509013803363,299.07962062272,36.36424558278286,24.272416510053326,66.74802713780326,0.034124542685225155,0.022777459012185343,70.5875,,
16.921124999999535,1600,,0.06111671434499508,0.8407065688133888,11.584763885710286,3.2221012630373593,301.38345523536,37.3272823481367,24.972088364919976,66.90036561466022,0.03366584950878147,0.022522576408656098,70.5875,,
17.09375,1600,,0.06251388926903585,0.8529629076120585,11.964575114881999,3.220804484597489,304.2108886236,38.53555718631546,25.785102228460417,66.91249358038888,0.03307967911294907,0.022134438162865287,70.5875,,
17.260929999999703,1600,,0.06388434766594767,0.86848173556187,12.34881690251602,3.223517233893379,307.14304176696,39.80662410345425,26.60222324703083,66.82863429436712,0.032646960650508955,0.021817517941354565,70.475,,
17.406474999999627,1600,,0.06498618685135464,0.8822970318570423,12.740054714217884,3.2222763907518392,310.07519491031996,41.05197752251096,27.31596023407932,66.53993761713559,0.03229968942319263,0.021492193192720922,70.475,,
17.5729299999997,1600,,0.0666437191053513,0.9020174640302113,13.184608159461174,3.224496487894761,313.42622707415995,42.51372270445116,28.3190282109157,66.61149955694357,0.03185199214154264,0.021217089604241377,70.475,,
17.735589999999384,1600,,0.06809818399538314,0.9192960025405735,13.668324201133274,3.2225327464157316,316.777259238,44.04662232677862,29.24907275155989,66.40480292577985,0.03142991951741603,0.02087097611527133,70.475,,
17.880969999999273,1600,,0.0694283166901811,0.9384744427838612,14.159933697907562,3.2220847670871544,319.70941238136,45.624506670992034,30.092592906743608,65.95708118829133,0.031186227311557242,0.020569525267448895,70.475,,
18.045810000000056,1600,,0.07104571832248525,0.9591519500596759,14.73630912394928,3.223216781028077,323.79348283103997,47.49831885873048,31.191154051236513,65.66791162442036,0.03075076826218465,0.020193387326241714,70.475,,
18.216279999999795,1600,,0.07298138986525857,0.9839859928560059,15.362270337616145,3.2231322893641052,327.87755328072,49.514629563111015,32.43822841469123,65.51241259584843,0.030334147114222797,0.019872631614901288,70.475,,
18.363374999999536,1600,,0.0747406077892268,1.0056342968628504,15.989655981968255,3.220003667490307,331.54274470992,51.48675090384611,33.59699583383635,65.25367253525144,0.029932268403892577,0.019531904406648596,70.475,,
18.533739999999757,1600,,0.077119704968859,1.0328745760081528,16.722024352949255,3.221687358273565,336.46457320056,53.8731344626393,35.18121119202583,65.30381338109032,0.029358698606779747,0.01917234974928821,70.475,,
18.697244999999647,1600,,0.07954504884206758,1.061507299675902,17.475028072707975,3.2212127679485336,341.59584120143995,56.29078354806598,36.84605124015986,65.45663236095743,0.028809255373311932,0.018857568375638165,70.475,,
18.863219999999274,1600,,0.08174457555683566,1.090101046051547,18.207277195080067,3.2250479871360898,346.41294993696,58.7193426692218,38.38743040170659,65.37442119873671,0.02839734347009287,0.01856459892939047,70.475,,
19.011494999999645,1600,,0.08242391672268977,1.1154893760105036,18.520951337812807,3.222003787643885,349.7639821008,59.674575361200944,39.0925471707794,65.5095523246848,0.028534579011630666,0.018692874968252716,70.475,,
19.170524999999905,1600,,0.0826733788857885,1.1378370587363364,18.715023813510367,3.2239844681920458,352.17253646856,60.33694609660169,39.479057646636015,65.43098416586841,0.028821282131927757,0.018858048548141913,70.475,,
19.342599999999628,1600,,0.08253856314276416,1.1535852286836963,18.810534637973994,3.2275909529308366,353.9527723056,60.712711417316996,39.60937375504607,65.24066020175859,0.02912404613659751,0.01900071997698098,70.475,,
19.489714999999386,1600,,0.08249212113098044,1.1611518398961262,18.862358258609326,3.2237263835837227,354.99996985679996,60.80708197488721,39.70098661492251,65.29007037587937,0.02924743032606855,0.019095667843026437,70.475,,
19.66487999999942,1600,,0.08226334596369832,1.1688987616504287,18.88960375494851,3.223259417662361,355.62828838752,60.88609319904808,39.66093747356638,65.1395670008048,0.029472292792612084,0.019198123910316913,70.475,,
19.80582999999961,1600,,0.08219194528953433,1.1746024544029718,18.930727431220365,3.2244484809778857,355.94244765288,61.0411553094049,39.6625078027538,64.97666631916256,0.029614931568230744,0.019242795265737626,70.475,,
19.972104999999516,1600,,0.08211237944397487,1.1800561886522314,18.939943752492677,3.22450380682618,356.25660691824,61.07192073098636,39.66668077261967,64.95076673181131,0.029749305101090716,0.01932240176054428,70.475,,
20.139169999999925,1600,,0.08179121241596625,1.17914336605043,18.954073721261572,3.222166679961281,356.46604642847996,61.073184794178765,39.52558125028211,64.71838890257041,0.029832410523805114,0.019307055461807537,70.475,,
20.284349999999627,1600,,0.08164954276464341,1.178777000681281,18.950241120393247,3.220956948930264,356.67548593872,61.03791082063466,39.48829522863738,64.69470317337245,0.029851301350340847,0.01931221080199193,70.475,,
20.456349999999627,1600,,0.08144785800634555,1.1779116654170594,18.971845169575428,3.222732673926942,356.98964520408,61.141185312673755,39.417697751154314,64.46996005977586,0.02988281235634989,0.01926543719087654,70.475,,
