Time,ESC (µs),Servo (µs),Torque (lbf·ft),Thrust (lbf),Voltage (V),Current (A),Motor Optical Speed (RPM),Electrical Power (W),Mechanical Power (W),Motor Efficiency (%),Propeller Mech. Efficiency (lbf/W),Overall Efficiency (lbf/W),319A Temp (ºF),Motor Temp,App message,
0.23210774996876715,1220,,0.0018706354888525423,-0.007149508685865518,23.746991509844587,-0.023829013137394363,0,0.5658672215576794,0,0,0,0,77.3375,89.515625,,
0.23372050001621245,1220,,0.0021312672506199394,-0.006694926706574908,23.747189323034604,-0.01829950966771963,0,0.43456189118288824,0,0,0,0,77.3375,89.4875,,
0.7397030000150204,1220,,0.0022289581239466243,-0.007103553234994174,23.74725796142221,-0.02194590792833742,0,0.5211551266740848,0,0,0,0,77.3375,89.4875,,
1.233718750014901,1220,,0.0020410840796665037,-0.007291824773108332,23.747388006824647,-0.019309281842812172,0,0.45854502541911923,0,0,0,0,77.3375,89.4875,,
1.7332582500189546,1220,,0.002172606572636325,-0.0063914824808994864,23.747509246619853,-0.017358450333064428,0,0.41221992780538264,0,0,0,0,77.3375,89.4875,,
2.2389070000261064,1220,,0.002129260222719433,-0.006385329949563746,23.747563834946348,-0.018506598537535442,0,0.4394866216477812,0,0,0,0,77.3375,89.4875,,
2.7433745000094185,1220,,0.002457268432475002,-0.006726828827245445,23.747617904956332,-0.017941712706979356,0,0.4260729433233733,0,0,0,0,77.3375,89.4875,,
3.240216250008345,1220,,0.0023325518223197782,-0.005849180089499831,23.747724478768248,-0.016813305428412927,0,0.3992777781345437,0,0,0,0,77.3375,89.4875,,
3.7297230000108486,1236.8,,0.0022448913526487086,-0.006087340306059588,23.74788529314133,-0.0185618749468013,0,0.4408052904681643,0,0,0,0,77.3375,89.4875,,
4.227558500006795,1275.45,,0.0024544760119818185,-0.00638377340507575,23.747992983494143,-0.020125592842767753,0,0.4779424402227329,0,0,0,0,77.3375,89.4875,,
4.721196750006081,1313.95,,0.0024627491834991054,-0.005963970248027701,23.748166478684347,-0.015960770721926993,0,0.37903899756650256,0,0,0,0,77.43875,89.4875,,
5.2133120000123965,1352.35,,0.0023739176017568402,-0.007000752687514131,23.748286473517304,-0.01645061955339879,0,0.39067409304574974,0,0,0,0,77.42750000000001,89.465,,
5.711163500005007,1391.15,,0.004789199901634071,-0.0163043412776955,23.722447536701175,0.2636138148258899,0,6.433603318530002,0,0,0,0,77.3375,89.375,,
6.2080177500188345,1429.85,,0.001357932358609319,-0.0604371742909372,23.689530545365333,0.5985693246866794,0,14.179074580748823,0,0,0,0,77.3375,89.375,,
6.7053162500083445,1468.7,,0.06406957174700938,-0.038688500234309024,23.628666938209296,1.2544713362927313,0,29.596436945895913,0,0,0,0,77.3375,89.375,,
7.2023857500106105,1507.45,,0.10356895149957483,0.41035081886593605,23.522424685110554,2.3552786639242997,0,55.40032935751843,0,0,0,0,77.3375,89.375,,
7.693754250013828,1545.85,,0.09735190522052357,0.8314150439394126,23.454939905466524,3.0176013365189966,0,70.76985060545339,0,0,0,0,77.365625,89.375,,
8.19257350001335,1584.8,,0.12384801211273126,1.2409478373454645,23.32574758812708,4.3458707407713355,0,101.35638529563211,0,0,0,0,77.45,89.375,,
8.682230000010133,1622.9,,0.15079210404443277,1.6611823661581275,23.166920316808195,5.97444777106004,0,138.3694120191813,0,0,0,0,77.376875,89.22875,,
9.162531500014664,1660.4,,0.18266868664441885,2.143335375399793,22.9910306876707,7.7803572451316185,0,178.8535737452879,0,0,0,0,77.3375,89.15,,
9.66439625001252,1699.45,,0.2139619223370554,2.634386513575412,22.770550087302798,10.071935127236403,0,229.26846996199583,0,0,0,0,77.3375,89.043125,,
10.168001750010252,1738.7,,0.25386431778122204,3.2238841844356134,22.487939340701985,13.02383703935735,0,292.81860263132563,0,0,0,0,77.3375,88.97,,
10.654825000008941,1776.85,,0.28508638128195096,3.7898067448464174,22.225766696099196,15.752186250135699,0,350.0579730014043,0,0,0,0,77.3375,88.8125,,
11.137949500012397,1814.45,,0.31758129502613086,4.286374604435436,21.967597074392653,18.41596464158617,0,404.48308843547863,0,0,0,0,77.3375,88.5425,,
11.627341500011084,1852.65,,0.3533280612620284,4.823356859930025,21.650568133151943,21.765879760357834,0,471.1422179833021,0,0,0,0,77.3375,88.3625,,
12.11002025001645,1890.25,,0.38805579687075825,5.362215602208749,21.30282002092752,25.461647260511555,0,542.2897407913513,0,0,0,0,77.3375,88.05875,,
12.609181250011922,1929.05,,0.42438796222416825,5.8951326353615725,20.942249689800025,29.31472410750886,0,613.7995798159059,0,0,0,0,77.3375,87.884375,,
13.109682250022889,1968.15,,0.45668446584853656,6.3787569322844755,20.55758433471113,33.44160950115117,0,687.3389175004651,0,0,0,0,77.3375,87.4625,,
13.612201250010731,1998.1,,0.4784764116748488,6.778187938628127,20.32286735452461,35.86372540599279,0,728.8527505787409,0,0,0,0,77.264375,87.16999999999999,,
14.105643250003459,2000,,0.4782192460959951,6.868030845394476,20.304172570239807,35.895690611752606,0,728.8323086409771,0,0,0,0,77.225,87.0125,,
14.589705750006436,2000,,0.4763446409277275,6.85866949035904,20.296436499052508,35.8469261035883,0,727.5648815981907,0,0,0,0,77.225,86.58500000000001,,
15.081022500014305,2000,,0.473371046823823,6.866082875643677,20.289039076012717,35.816855220525674,0,726.6895845826652,0,0,0,0,77.225,86.421875,,
15.585638250014188,2000,,0.47673731803218816,6.887006841762651,20.280532718682796,35.80787345473085,0,726.2026453290046,0,0,0,0,77.225,86,,
16.083252250021694,2000,,0.4787391246302305,6.894917070847704,20.27160533277442,35.808024888530255,0,725.8861554749499,0,0,0,0,77.151875,85.7075,,
16.58383825000524,2000,,0.47831763449445125,6.892601921674574,20.27032386905835,35.727978013751326,0,724.2176925189567,0,0,0,0,77.1125,85.55,,
17.083085250011088,2000,,0.4758869749725794,6.848268845656294,20.265468637254592,35.692985757576274,0,723.3350949449829,0,0,0,0,77.1125,85.1,,
17.58903025001585,2000,,0.47714605156745327,6.885483065385371,20.247527466934617,35.796942228404326,0,724.7992544134952,0,0,0,0,77.1125,84.981875,,
18.08549625001252,2000,,0.47681267957608464,6.856247564447593,20.24349024287921,35.74372728813869,0,723.5775372146979,0,0,0,0,77.1125,84.7625,,
18.584830750015378,2000,,0.4736538424491519,6.789174282728986,20.256791580861073,35.49055359411696,0,718.924505427017,0,0,0,0,77.1125,84.52624999999999,,
19.082009250017997,2000,,0.4722576487253722,6.744432218211878,20.258553254688106,35.34072219330203,0,715.9517909811291,0,0,0,0,77.1125,84.40812500000001,,
19.590828750011326,2000,,0.47525463854628525,6.816312246700584,20.219822603334116,35.439140705449596,0,716.5726431809895,0,0,0,0,77.1125,84.0875,,
20.086308250021936,2000,,0.47430323841070093,6.817070720411089,20.190190143306342,35.4419553064018,0,715.5798185666074,0,0,0,0,77.061875,83.93562499999999,,
20.582172500020267,2000,,0.4712307126127546,6.770393558810566,20.191781047549533,35.3618259234237,0,714.0181997077676,0,0,0,0,77,83.75,,
21.088519500029083,2000,,0.4754706707716961,6.8419442765937015,20.17166456460346,35.549710409752876,0,717.0964851950087,0,0,0,0,77,83.57,,
21.584602500012515,2000,,0.47608393394180715,6.838445881253329,20.173759515271588,35.4863327469472,0,715.8924061447906,0,0,0,0,77,83.474375,,
22.09000075001717,2000,,0.47508892602308417,6.819931711827222,20.173199818257704,35.451296806286265,0,715.1660583438108,0,0,0,0,77,83.1875,,
22.583328750005364,2000,,0.47452395862246827,6.807557928778502,20.16966278864752,35.46470177034472,0,715.3110397937386,0,0,0,0,77,83.06375,,
23.08391525001526,2000,,0.4710818195023327,6.76500912649122,20.176358561458297,35.362438063095716,0,713.4851753845107,0,0,0,0,77,82.9625,,
23.583895500013234,2000,,0.4683515097404127,6.732879784039832,20.188526238837387,35.18743823733475,0,710.3822939079403,0,0,0,0,77,82.86125,,
24.08894650001526,2000,,0.46814822507918524,6.777822561296185,20.182194248095165,35.2260221975082,0,710.9383273940875,0,0,0,0,76.971875,82.79375,,
24.584716500011083,2000,,0.4702907897149135,6.791065166385303,20.175097416828592,35.272624437672256,0,711.6285548017621,0,0,0,0,76.8875,82.625,,
25.08311400001347,2000,,0.4701250588934492,6.770409368362468,20.16975261584937,35.300031743027276,0,711.992706185626,0,0,0,0,76.8875,82.49000000000001,,
25.58236850001216,2000,,0.47507620398011685,6.8262569354222125,20.150829569640347,35.47421405259189,0,714.8346539562183,0,0,0,0,76.8875,82.4,,
26.084217500013107,2000,,0.47508985221090716,6.838600669951406,20.139708593831145,35.560083926651295,0,716.1697134595016,0,0,0,0,76.8875,82.2875,,
26.592223500010373,2000,,0.4753653475121219,6.851019436250721,20.143516996368493,35.486353361611044,0,714.8198991936764,0,0,0,0,76.8875,82.2425,,
27.090643250015383,2000,,0.47486326862428263,6.828815217019069,20.148110989477043,35.4018487829161,0,713.2803782634359,0,0,0,0,76.8875,82.175,,
27.58190175001919,2000,,0.4734627266427678,6.850928736500174,20.14501945412875,35.405992396952854,0,713.254345350024,0,0,0,0,76.80875,82.09625,,
28.083098750004165,2000,,0.47359027458789316,6.801472552241184,20.146212277002242,35.35210054768432,0,712.2105891472654,0,0,0,0,76.775,82.0625,,
28.5823057500124,2000,,0.46924632869325417,6.74667985327687,20.156687186730345,35.215726890539024,0,709.8323689136816,0,0,0,0,76.775,82.0625,,
29.08270825000406,2000,,0.4682297273896636,6.755475057113695,20.1533549253871,35.22025288335616,0,709.8062159055646,0,0,0,0,76.775,82.011875,,
29.58294200001359,2000,,0.4705057352269331,6.785769553241829,20.13964134383916,35.334816033660616,0,711.6302272959568,0,0,0,0,76.775,81.95,,
30.08387800002098,2000,,0.47441320950086113,6.835510144419479,20.12099260081633,35.518812745670274,0,714.6736311060829,0,0,0,0,76.775,81.95,,
30.59187575001717,2000,,0.4740605824979532,6.806649748046556,20.122538320712213,35.48120384099456,0,713.9718375839459,0,0,0,0,76.775,81.92750000000001,,
31.09050325002075,2000,,0.47473426076049485,6.815683675308752,20.1203217776629,35.48075638391398,0,713.8840456085406,0,0,0,0,76.775,81.8375,,
31.592239000016445,2000,,0.4733389399888516,6.795083236197306,20.121745738315866,35.42291242913322,0,712.7706544871766,0,0,0,0,76.775,81.77562499999999,,
32.089421500009294,2000,,0.47396891321636286,6.796995578683317,20.118066995880568,35.420249500234874,0,712.586931998438,0,0,0,0,76.775,81.725,,
32.58319325001538,2000,,0.472264859625209,6.773319889217453,20.12215429021747,35.336131145207844,0,711.0389816471211,0,0,0,0,76.775,81.725,,
33.083209750023485,2000,,0.470601325636698,6.777236079479158,20.119832302930888,35.34409224587462,0,711.1168970355482,0,0,0,0,76.746875,81.725,,
33.59020050001145,2000,,0.47394294060264586,6.826020172398847,20.111015795882864,35.423016526971864,0,712.3926553660601,0,0,0,0,76.6625,81.725,,
34.08845000002086,2000,,0.47264282850819467,6.816491493719256,20.112511505461512,35.379499971475845,0,711.57053959971,0,0,0,0,76.73,81.725,,
34.59217025001646,2000,,0.4739520997455686,6.792324018225614,20.111224293636873,35.37013670188039,0,711.3364843102734,0,0,0,0,76.775,81.725,,
35.089733250015975,2000,,0.47203300189272734,6.778371337522882,20.122944892924806,35.210979642854234,0,708.5485661245814,0,0,0,0,76.6625,81.6125,,
35.59257825002074,2000,,0.4736649321383905,6.798466701069797,20.121942803035047,35.20009874482953,0,708.2943263252635,0,0,0,0,76.6625,81.6125,,
36.0925242500186,2000,,0.47053636685104355,6.732739179038899,20.124315003346478,35.147567090317445,0,707.3204901821954,0,0,0,0,76.6625,81.6125,,
36.58790100000799,2000,,0.47225798463107066,6.720632802640895,20.11802339673478,35.18712339719596,0,707.8952136733981,0,0,0,0,76.6625,81.53375,,
37.08551100001931,2000,,0.4686258156227411,6.7260279648156045,20.11988772264327,35.13108919541323,0,706.833502815096,0,0,0,0,76.6625,81.5,,
37.59213625002205,2000,,0.4693536691104604,6.771107601216163,20.10979212451327,35.21727338844406,0,708.2119985917768,0,0,0,0,76.6625,81.5,,
38.08683225001991,2000,,0.4701774482745838,6.780827996314642,20.107264093211814,35.216351947488555,0,708.1044730660547,0,0,0,0,76.6625,81.5,,
38.58502875001729,2000,,0.4682080503865186,6.771935640682731,20.09791318505561,35.28858553652619,0,709.2268575520314,0,0,0,0,76.6625,81.5,,
39.06974350001813,2000,,0.4680038067234114,6.742541039829199,20.10081746282545,35.2300215641859,0,708.1520819905554,0,0,0,0,76.6625,81.5,,
39.564598750016096,2000,,0.46747905607862733,6.684349452278465,20.11351283824082,35.05908297660684,0,705.1611624738993,0,0,0,0,76.6625,81.5,,
40.06260625001788,2000,,0.471740919231513,6.745959722114155,20.100529562545145,35.18390562572335,0,707.2148255052552,0,0,0,0,76.6625,81.5,,
40.56224725000858,2000,,0.47473404514384526,6.778744162448079,20.098632148648854,35.17732601776068,0,707.0159807126231,0,0,0,0,76.6625,81.550625,,
41.06252375001013,2000,,0.47328457285271036,6.771584358055602,20.10970888459942,35.02829334291833,0,704.4085996650153,0,0,0,0,76.6625,81.6125,,
41.552791750013824,2000,,0.47079198200829736,6.768752331802988,20.102547315640173,35.091209657525766,0,705.4226626594726,0,0,0,0,76.6625,81.6125,,
42.04046550001502,2000,,0.4729039706556091,6.766327163743398,20.09812520893909,35.114079475410264,0,705.7271124213801,0,0,0,0,76.6625,81.6125,,
42.5361845000118,2000,,0.47230668314314733,6.804330706904311,20.085037202926998,35.22516677463919,0,707.4987038698143,0,0,0,0,76.6625,81.6125,,
43.0400677500248,2000,,0.47200161855887696,6.827190114885898,20.077021220737997,35.28604906927112,0,708.4387466303767,0,0,0,0,76.6625,81.6125,,
43.53265375001729,2000,,0.4738624157416235,6.782801333459992,20.08299651565185,35.19346940674732,0,706.7902098066202,0,0,0,0,76.6625,81.6125,,
44.05071025001705,2000,,0.4731066849033467,6.740189155939091,20.086862722465405,35.122215973050295,0,705.4951050332177,0,0,0,0,76.6625,81.7025,,
44.55243675001263,2000,,0.47114486720586585,6.734553085669392,20.087102500231236,35.09154445278709,0,704.8874396508118,0,0,0,0,76.6625,81.725,,
45.04326150002181,2000,,0.46901587947558854,6.672383285138593,20.096804231442377,34.94581511736569,0,702.2978965414861,0,0,0,0,76.6625,81.725,,
45.540761250013105,2000,,0.4606846230554393,6.59523749181482,20.11965528491004,34.67484675305428,0,697.6458589379635,0,0,0,0,76.6625,81.725,,
46.03313475001754,2000,,0.46487155627076027,6.648497587075107,20.104217475034442,34.82663964585565,0,700.1621886987257,0,0,0,0,76.6625,81.725,,
46.53943800000549,2000,,0.4687958936432543,6.685562604193003,20.08871773906963,34.97805212262268,0,702.6640652107278,0,0,0,0,76.6625,81.725,,
47.03384350001217,2000,,0.46418541930753576,6.68875554219446,20.09345957871133,34.899992685008925,0,701.2615058535689,0,0,0,0,76.6625,81.725,,
47.5352442500174,2000,,0.4690056762533646,6.795535652993965,20.077596125680117,35.05261680267277,0,703.7721876076282,0,0,0,0,76.6625,81.725,,
48.04409575001299,2000,,0.47250107459498214,6.818211518728157,20.070702942836412,35.09765889357915,0,704.4344978960988,0,0,0,0,76.6625,81.725,,
48.536812500017874,2000,,0.4750126374258972,6.808014736220135,20.061042872742814,35.18527148316666,0,705.8532189944071,0,0,0,0,76.6625,81.725,,
49.03844900002182,2000,,0.47253709881575384,6.756418060784181,20.067637914228587,35.07977315450255,0,703.9680700215955,0,0,0,0,76.6625,81.725,,
49.53891050001085,2000,,0.46819552944968934,6.685318565527401,20.082305365112425,34.913578778068015,0,701.1449969546975,0,0,0,0,76.6625,81.764375,,
50.03597025002241,2000,,0.46762647219860654,6.702082771388764,20.08362666208135,34.87869584374056,0,700.4905676948738,0,0,0,0,76.6625,81.8375,,
50.53300075001418,2000,,0.4660029207119404,6.689118802421403,20.083732802481684,34.85956528200738,0,700.1101231534456,0,0,0,0,76.6625,81.8375,,
51.026545000019674,2000,,0.4667794977203646,6.685735409457051,20.074367318528772,34.929879002479396,0,701.1949492697186,0,0,0,0,76.6625,81.8375,,
51.544579000014075,2000,,0.468805130262675,6.686887260808011,20.072264034002085,34.94608134111232,0,701.4469621659866,0,0,0,0,76.6625,81.95,,
52.03776925001144,2000,,0.4684343124475126,6.71942836528214,20.072803630770405,34.9228068064222,0,700.9986225474449,0,0,0,0,76.6625,81.905,,
52.53628100001811,2000,,0.46349378977206973,6.664780884258044,20.08726136788622,34.742547899177225,0,697.8822568452358,0,0,0,0,76.6625,81.8375,,
53.03327375001013,2000,,0.46429964445378036,6.684350268061525,20.08466229837801,34.7590124596706,0,698.1229689232316,0,0,0,0,76.6625,81.8375,,
53.527383250012996,2000,,0.46518071053629734,6.743206192045563,20.070724563632837,34.90659624923262,0,700.6002776798923,0,0,0,0,76.6625,81.8375,,
54.0118742500156,2000,,0.4676601381812204,6.7060942494736855,20.065925074650735,34.925513736000184,0,700.8127216633568,0,0,0,0,76.6625,81.8375,,
54.509969500020155,2000,,0.4642350673502312,6.668582255057467,20.06773354642764,34.86381862753387,0,699.6377029184339,0,0,0,0,76.6625,81.8375,,
55.021420250016455,2000,,0.4623744739673932,6.680595154841538,20.073743736907183,34.78742727292629,0,698.3138232716016,0,0,0,0,76.6625,81.8375,,
55.51666925002635,2000,,0.46695199761771305,6.725992125622978,20.064148597792073,34.87457873499325,0,699.7287225641696,0,0,0,0,76.6625,81.8375,,
56.01579350002112,2000,,0.46828803957184045,6.749126484053903,20.053079937538563,34.95455814908432,0,700.9462130754295,0,0,0,0,76.6625,81.8375,,
56.55557250001431,2000,,0.47236668146412286,6.791443264642843,20.037654382057166,35.10134130655011,0,703.3484723051421,0,0,0,0,76.6625,81.8375,,
57.0743695000112,2000,,0.47213617383372697,6.770226374212199,20.0325724114577,35.12101824111356,0,703.5643168455523,0,0,0,0,76.735625,81.910625,,
57.60993725001515,2000,,0.46616339444142085,6.689416225619396,20.046262963730364,34.94802290570444,0,700.5766297173313,0,0,0,0,76.76375,81.96125,,
58.11780175001621,2000,,0.45841132025013165,6.6586549797056644,20.064517836534357,34.73834064271934,0,697.0079505601689,0,0,0,0,76.6625,82.0625,,
58.62224600001573,2000,,0.457883116701182,6.595339066572281,20.082842495745574,34.51866867225836,0,693.2327631591381,0,0,0,0,76.71875,82.0625,,
59.113819250011446,2000,,0.4584048515884448,6.62145455527014,20.07641554265427,34.585720985630566,0,694.3568011738587,0,0,0,0,76.775,82.0625,,
59.615739000019445,2000,,0.4647781160228301,6.683356530704378,20.05413310863475,34.79696613323799,0,697.8226157548119,0,0,0,0,76.775,82.0625,,
60.11864625002147,2000,,0.4677003829842059,6.7312924689355835,20.03687716906834,34.95130294890847,0,700.3148283756876,0,0,0,0,76.7525,82.0625,,
60.61472225002647,2000,,0.4675258912500552,6.6965163125883045,20.039036958825715,34.89617082332242,0,699.2855143319621,0,0,0,0,76.6625,82.0625,,
61.1161362500161,2000,,0.4669178344294505,6.670240546651714,20.036605312539113,34.91976523951162,0,699.6734993832231,0,0,0,0,76.6625,82.0625,,
61.616352250018714,2000,,0.46677811749238834,6.673703600329245,20.034754055764733,34.920319005719726,0,699.6199845986168,0,0,0,0,76.6625,82.0625,,
62.124295000007734,2000,,0.46560569073263586,6.6601629733459955,20.03725681964659,34.872586363986215,0,698.7509064792075,0,0,0,0,76.76375,82.16375,,
62.63892950001358,2000,,0.46120598357464476,6.669787224650341,20.03917180980692,34.83470334002907,0,698.0585611946697,0,0,0,0,76.775,82.175,,
63.13660275001526,2000,,0.46398677030770363,6.694712335987435,20.03546289561086,34.85720002595559,0,698.3801341182784,0,0,0,0,76.775,82.175,,
63.63487025001349,2000,,0.4644465702340139,6.7281789981915345,20.04138405210596,34.769782505414796,0,696.8343856650687,0,0,0,0,76.69625,82.25375,,
64.13648825000823,2000,,0.466992816345755,6.777536592111198,20.028335014629885,34.89964703258697,0,698.9806178263268,0,0,0,0,76.6625,82.2875,,
64.63839500000775,2000,,0.4703166192679111,6.755370930230401,20.016739853411057,35.00752586005388,0,700.7365363353401,0,0,0,0,76.6625,82.2875,,
65.14666775001288,2000,,0.4727840603359389,6.7539900705068625,20.014763207994935,34.9960842269119,0,700.4383166233188,0,0,0,0,76.71312499999999,82.236875,,
65.63645900001526,2000,,0.4695749477232636,6.730766201081547,20.02376443008975,34.917734222006956,0,699.1843471548885,0,0,0,0,76.775,82.175,,
66.13508350001572,2000,,0.4654682959397243,6.6882712920364025,20.03231277613002,34.817859724632626,0,697.4822321535707,0,0,0,0,76.685,82.265,,
